nm, %R
1800.000000, 101.564400
1799.000000, 101.626100
1798.000000, 101.572300
1797.000000, 101.571200
1796.000000, 101.579400
1795.000000, 101.582100
1794.000000, 101.536900
1793.000000, 101.532600
1792.000000, 101.578600
1791.000000, 101.586400
1790.000000, 101.540400
1789.000000, 101.539700
1788.000000, 101.527700
1787.000000, 101.532000
1786.000000, 101.545000
1785.000000, 101.567100
1784.000000, 101.545800
1783.000000, 101.584700
1782.000000, 101.566700
1781.000000, 101.581700
1780.000000, 101.558600
1779.000000, 101.593100
1778.000000, 101.541000
1777.000000, 101.534900
1776.000000, 101.551600
1775.000000, 101.539500
1774.000000, 101.524200
1773.000000, 101.554200
1772.000000, 101.575700
1771.000000, 101.553600
1770.000000, 101.549900
1769.000000, 101.560400
1768.000000, 101.596500
1767.000000, 101.603600
1766.000000, 101.574200
1765.000000, 101.556600
1764.000000, 101.592600
1763.000000, 101.581300
1762.000000, 101.562100
1761.000000, 101.554800
1760.000000, 101.548100
1759.000000, 101.564600
1758.000000, 101.575800
1757.000000, 101.538500
1756.000000, 101.555000
1755.000000, 101.578300
1754.000000, 101.566700
1753.000000, 101.562600
1752.000000, 101.562400
1751.000000, 101.564600
1750.000000, 101.575800
1749.000000, 101.585400
1748.000000, 101.544700
1747.000000, 101.552800
1746.000000, 101.550800
1745.000000, 101.564300
1744.000000, 101.607800
1743.000000, 101.591500
1742.000000, 101.579500
1741.000000, 101.576000
1740.000000, 101.545500
1739.000000, 101.550400
1738.000000, 101.533800
1737.000000, 101.533000
1736.000000, 101.579600
1735.000000, 101.570500
1734.000000, 101.538900
1733.000000, 101.534400
1732.000000, 101.544100
1731.000000, 101.514100
1730.000000, 101.546400
1729.000000, 101.538000
1728.000000, 101.547200
1727.000000, 101.541600
1726.000000, 101.505700
1725.000000, 101.538300
1724.000000, 101.550500
1723.000000, 101.539100
1722.000000, 101.538400
1721.000000, 101.535000
1720.000000, 101.528200
1719.000000, 101.533200
1718.000000, 101.553300
1717.000000, 101.541500
1716.000000, 101.539900
1715.000000, 101.523700
1714.000000, 101.518000
1713.000000, 101.515000
1712.000000, 101.482200
1711.000000, 101.499300
1710.000000, 101.484900
1709.000000, 101.501800
1708.000000, 101.517000
1707.000000, 101.486800
1706.000000, 101.493200
1705.000000, 101.493700
1704.000000, 101.466300
1703.000000, 101.494400
1702.000000, 101.517700
1701.000000, 101.494900
1700.000000, 101.513600
1699.000000, 101.519300
1698.000000, 101.455800
1697.000000, 101.450700
1696.000000, 101.487200
1695.000000, 101.474200
1694.000000, 101.457600
1693.000000, 101.468100
1692.000000, 101.484100
1691.000000, 101.468100
1690.000000, 101.431000
1689.000000, 101.451300
1688.000000, 101.452800
1687.000000, 101.430900
1686.000000, 101.440200
1685.000000, 101.453600
1684.000000, 101.425900
1683.000000, 101.425000
1682.000000, 101.461100
1681.000000, 101.461100
1680.000000, 101.452700
1679.000000, 101.445200
1678.000000, 101.431300
1677.000000, 101.444100
1676.000000, 101.447900
1675.000000, 101.435600
1674.000000, 101.419300
1673.000000, 101.420100
1672.000000, 101.433300
1671.000000, 101.435900
1670.000000, 101.448600
1669.000000, 101.403500
1668.000000, 101.382600
1667.000000, 101.382900
1666.000000, 101.394300
1665.000000, 101.420100
1664.000000, 101.401300
1663.000000, 101.369300
1662.000000, 101.382100
1661.000000, 101.388700
1660.000000, 101.385000
1659.000000, 101.362200
1658.000000, 101.369900
1657.000000, 101.379100
1656.000000, 101.388100
1655.000000, 101.372500
1654.000000, 101.331800
1653.000000, 101.336400
1652.000000, 101.348000
1651.000000, 101.332900
1650.000000, 101.296700
1649.000000, 101.305400
1648.000000, 101.304000
1647.000000, 101.350100
1646.000000, 101.346600
1645.000000, 101.306900
1644.000000, 101.308500
1643.000000, 101.327900
1642.000000, 101.343400
1641.000000, 101.342900
1640.000000, 101.324900
1639.000000, 101.304800
1638.000000, 101.327800
1637.000000, 101.301600
1636.000000, 101.316000
1635.000000, 101.311400
1634.000000, 101.318900
1633.000000, 101.329100
1632.000000, 101.315800
1631.000000, 101.269100
1630.000000, 101.282600
1629.000000, 101.325100
1628.000000, 101.291600
1627.000000, 101.322700
1626.000000, 101.319600
1625.000000, 101.290300
1624.000000, 101.281800
1623.000000, 101.297500
1622.000000, 101.293000
1621.000000, 101.287400
1620.000000, 101.304600
1619.000000, 101.299500
1618.000000, 101.308800
1617.000000, 101.337400
1616.000000, 101.329500
1615.000000, 101.298500
1614.000000, 101.316400
1613.000000, 101.318600
1612.000000, 101.306100
1611.000000, 101.279300
1610.000000, 101.291300
1609.000000, 101.319900
1608.000000, 101.297300
1607.000000, 101.316500
1606.000000, 101.325700
1605.000000, 101.290300
1604.000000, 101.326500
1603.000000, 101.331000
1602.000000, 101.297900
1601.000000, 101.290100
1600.000000, 101.302200
1599.000000, 101.313700
1598.000000, 101.336600
1597.000000, 101.339200
1596.000000, 101.364400
1595.000000, 101.328100
1594.000000, 101.330700
1593.000000, 101.349500
1592.000000, 101.319400
1591.000000, 101.298500
1590.000000, 101.293400
1589.000000, 101.304800
1588.000000, 101.318600
1587.000000, 101.270300
1586.000000, 101.334800
1585.000000, 101.296400
1584.000000, 101.340400
1583.000000, 101.327100
1582.000000, 101.312700
1581.000000, 101.284500
1580.000000, 101.338200
1579.000000, 101.307900
1578.000000, 101.277800
1577.000000, 101.298400
1576.000000, 101.284900
1575.000000, 101.242000
1574.000000, 101.281700
1573.000000, 101.299900
1572.000000, 101.294800
1571.000000, 101.286100
1570.000000, 101.312400
1569.000000, 101.313300
1568.000000, 101.299400
1567.000000, 101.298700
1566.000000, 101.316700
1565.000000, 101.273100
1564.000000, 101.311900
1563.000000, 101.302300
1562.000000, 101.335800
1561.000000, 101.310700
1560.000000, 101.303200
1559.000000, 101.282100
1558.000000, 101.321100
1557.000000, 101.299200
1556.000000, 101.315200
1555.000000, 101.287900
1554.000000, 101.319800
1553.000000, 101.271900
1552.000000, 101.321600
1551.000000, 101.312400
1550.000000, 101.340400
1549.000000, 101.306800
1548.000000, 101.364300
1547.000000, 101.294000
1546.000000, 101.332300
1545.000000, 101.314200
1544.000000, 101.343700
1543.000000, 101.291600
1542.000000, 101.334100
1541.000000, 101.317500
1540.000000, 101.313100
1539.000000, 101.271100
1538.000000, 101.327400
1537.000000, 101.322500
1536.000000, 101.350500
1535.000000, 101.364900
1534.000000, 101.307200
1533.000000, 101.378800
1532.000000, 101.316800
1531.000000, 101.286600
1530.000000, 101.313200
1529.000000, 101.337200
1528.000000, 101.351300
1527.000000, 101.357500
1526.000000, 101.352700
1525.000000, 101.309500
1524.000000, 101.347400
1523.000000, 101.352600
1522.000000, 101.330700
1521.000000, 101.329400
1520.000000, 101.355600
1519.000000, 101.306500
1518.000000, 101.335900
1517.000000, 101.341500
1516.000000, 101.361700
1515.000000, 101.335300
1514.000000, 101.342400
1513.000000, 101.338800
1512.000000, 101.321900
1511.000000, 101.328600
1510.000000, 101.368600
1509.000000, 101.318900
1508.000000, 101.345800
1507.000000, 101.345700
1506.000000, 101.322100
1505.000000, 101.309100
1504.000000, 101.330700
1503.000000, 101.317900
1502.000000, 101.321100
1501.000000, 101.309700
1500.000000, 101.328500
1499.000000, 101.330000
1498.000000, 101.367900
1497.000000, 101.345700
1496.000000, 101.341600
1495.000000, 101.331200
1494.000000, 101.336500
1493.000000, 101.335800
1492.000000, 101.335300
1491.000000, 101.345800
1490.000000, 101.349200
1489.000000, 101.342000
1488.000000, 101.344700
1487.000000, 101.354500
1486.000000, 101.324000
1485.000000, 101.341500
1484.000000, 101.364700
1483.000000, 101.346400
1482.000000, 101.334400
1481.000000, 101.354300
1480.000000, 101.371300
1479.000000, 101.339700
1478.000000, 101.369000
1477.000000, 101.361400
1476.000000, 101.359300
1475.000000, 101.357400
1474.000000, 101.358700
1473.000000, 101.352000
1472.000000, 101.373200
1471.000000, 101.391000
1470.000000, 101.372100
1469.000000, 101.382500
1468.000000, 101.380800
1467.000000, 101.365100
1466.000000, 101.368400
1465.000000, 101.390900
1464.000000, 101.375700
1463.000000, 101.369000
1462.000000, 101.380900
1461.000000, 101.404300
1460.000000, 101.367000
1459.000000, 101.351400
1458.000000, 101.369100
1457.000000, 101.370300
1456.000000, 101.369000
1455.000000, 101.348600
1454.000000, 101.365400
1453.000000, 101.375200
1452.000000, 101.366200
1451.000000, 101.362100
1450.000000, 101.362600
1449.000000, 101.392900
1448.000000, 101.409800
1447.000000, 101.391400
1446.000000, 101.376400
1445.000000, 101.382500
1444.000000, 101.366900
1443.000000, 101.378400
1442.000000, 101.406600
1441.000000, 101.401400
1440.000000, 101.401000
1439.000000, 101.420100
1438.000000, 101.444800
1437.000000, 101.438600
1436.000000, 101.417900
1435.000000, 101.404700
1434.000000, 101.427300
1433.000000, 101.445200
1432.000000, 101.435100
1431.000000, 101.456900
1430.000000, 101.492500
1429.000000, 101.482300
1428.000000, 101.465200
1427.000000, 101.466000
1426.000000, 101.468500
1425.000000, 101.484400
1424.000000, 101.475500
1423.000000, 101.482600
1422.000000, 101.477600
1421.000000, 101.479600
1420.000000, 101.481600
1419.000000, 101.502900
1418.000000, 101.516000
1417.000000, 101.500900
1416.000000, 101.486700
1415.000000, 101.513900
1414.000000, 101.518000
1413.000000, 101.545100
1412.000000, 101.572000
1411.000000, 101.586300
1410.000000, 101.575200
1409.000000, 101.570600
1408.000000, 101.612400
1407.000000, 101.646900
1406.000000, 101.611100
1405.000000, 101.590100
1404.000000, 101.644000
1403.000000, 101.676100
1402.000000, 101.646800
1401.000000, 101.652300
1400.000000, 101.662200
1399.000000, 101.671700
1398.000000, 101.708700
1397.000000, 101.695900
1396.000000, 101.696200
1395.000000, 101.717100
1394.000000, 101.723200
1393.000000, 101.692300
1392.000000, 101.661800
1391.000000, 101.681900
1390.000000, 101.695000
1389.000000, 101.684700
1388.000000, 101.688000
1387.000000, 101.712600
1386.000000, 101.734100
1385.000000, 101.723000
1384.000000, 101.778500
1383.000000, 101.795300
1382.000000, 101.805100
1381.000000, 101.824900
1380.000000, 101.792500
1379.000000, 101.763300
1378.000000, 101.724900
1377.000000, 101.695500
1376.000000, 101.666400
1375.000000, 101.704700
1374.000000, 101.707400
1373.000000, 101.692800
1372.000000, 101.702700
1371.000000, 101.700700
1370.000000, 101.737100
1369.000000, 101.761500
1368.000000, 101.805400
1367.000000, 101.814900
1366.000000, 101.809100
1365.000000, 101.835500
1364.000000, 101.856200
1363.000000, 101.861700
1362.000000, 101.854000
1361.000000, 101.883900
1360.000000, 101.867200
1359.000000, 101.888700
1358.000000, 101.813600
1357.000000, 101.761700
1356.000000, 101.747700
1355.000000, 101.833900
1354.000000, 101.761900
1353.000000, 101.743000
1352.000000, 101.709500
1351.000000, 101.763300
1350.000000, 101.700700
1349.000000, 101.688700
1348.000000, 101.691500
1347.000000, 101.720000
1346.000000, 101.712200
1345.000000, 101.730500
1344.000000, 101.679500
1343.000000, 101.689900
1342.000000, 101.706600
1341.000000, 101.686100
1340.000000, 101.682200
1339.000000, 101.727600
1338.000000, 101.689200
1337.000000, 101.675600
1336.000000, 101.665400
1335.000000, 101.677200
1334.000000, 101.667700
1333.000000, 101.700600
1332.000000, 101.707600
1331.000000, 101.721200
1330.000000, 101.697300
1329.000000, 101.722600
1328.000000, 101.686900
1327.000000, 101.732700
1326.000000, 101.743900
1325.000000, 101.740400
1324.000000, 101.749500
1323.000000, 101.701200
1322.000000, 101.747400
1321.000000, 101.773200
1320.000000, 101.752000
1319.000000, 101.760200
1318.000000, 101.794900
1317.000000, 101.794200
1316.000000, 101.794900
1315.000000, 101.783800
1314.000000, 101.814400
1313.000000, 101.848100
1312.000000, 101.776500
1311.000000, 101.867200
1310.000000, 101.824600
1309.000000, 101.876200
1308.000000, 101.853700
1307.000000, 101.885400
1306.000000, 101.845700
1305.000000, 101.853300
1304.000000, 101.868800
1303.000000, 101.883100
1302.000000, 101.862800
1301.000000, 101.895400
1300.000000, 101.850000
1299.000000, 101.898500
1298.000000, 101.864700
1297.000000, 101.915900
1296.000000, 101.926400
1295.000000, 101.899900
1294.000000, 101.901300
1293.000000, 101.924900
1292.000000, 101.892900
1291.000000, 101.915300
1290.000000, 101.910300
1289.000000, 101.885300
1288.000000, 101.928300
1287.000000, 101.937000
1286.000000, 101.901200
1285.000000, 101.956600
1284.000000, 101.945600
1283.000000, 101.921500
1282.000000, 101.942300
1281.000000, 101.959400
1280.000000, 101.959800
1279.000000, 101.993800
1278.000000, 101.973600
1277.000000, 101.939700
1276.000000, 101.941400
1275.000000, 101.969900
1274.000000, 101.997100
1273.000000, 101.984400
1272.000000, 102.013900
1271.000000, 102.003300
1270.000000, 102.019400
1269.000000, 102.024100
1268.000000, 102.039700
1267.000000, 102.036300
1266.000000, 102.044500
1265.000000, 102.068200
1264.000000, 102.073700
1263.000000, 102.093700
1262.000000, 102.122700
1261.000000, 102.094800
1260.000000, 102.046700
1259.000000, 102.108800
1258.000000, 102.094400
1257.000000, 102.093900
1256.000000, 102.095200
1255.000000, 102.089000
1254.000000, 102.129200
1253.000000, 102.143400
1252.000000, 102.118900
1251.000000, 102.107300
1250.000000, 102.124100
1249.000000, 102.120400
1248.000000, 102.151000
1247.000000, 102.155600
1246.000000, 102.174700
1245.000000, 102.131000
1244.000000, 102.170300
1243.000000, 102.171900
1242.000000, 102.161500
1241.000000, 102.193500
1240.000000, 102.208100
1239.000000, 102.178000
1238.000000, 102.220100
1237.000000, 102.221500
1236.000000, 102.245100
1235.000000, 102.235600
1234.000000, 102.247400
1233.000000, 102.250400
1232.000000, 102.240300
1231.000000, 102.305700
1230.000000, 102.292700
1229.000000, 102.283300
1228.000000, 102.269400
1227.000000, 102.302600
1226.000000, 102.342000
1225.000000, 102.362800
1224.000000, 102.382200
1223.000000, 102.376800
1222.000000, 102.389200
1221.000000, 102.387300
1220.000000, 102.368600
1219.000000, 102.393600
1218.000000, 102.420200
1217.000000, 102.423600
1216.000000, 102.400900
1215.000000, 102.426700
1214.000000, 102.454600
1213.000000, 102.456100
1212.000000, 102.454900
1211.000000, 102.461100
1210.000000, 102.463900
1209.000000, 102.476900
1208.000000, 102.486600
1207.000000, 102.484600
1206.000000, 102.488500
1205.000000, 102.492000
1204.000000, 102.481700
1203.000000, 102.476700
1202.000000, 102.481900
1201.000000, 102.472900
1200.000000, 102.518000
1199.000000, 102.576900
1198.000000, 102.551000
1197.000000, 102.548700
1196.000000, 102.565600
1195.000000, 102.569000
1194.000000, 102.580700
1193.000000, 102.615400
1192.000000, 102.606000
1191.000000, 102.590800
1190.000000, 102.640600
1189.000000, 102.696600
1188.000000, 102.728200
1187.000000, 102.714200
1186.000000, 102.710200
1185.000000, 102.731100
1184.000000, 102.738100
1183.000000, 102.744000
1182.000000, 102.747200
1181.000000, 102.732400
1180.000000, 102.752500
1179.000000, 102.760800
1178.000000, 102.755900
1177.000000, 102.787900
1176.000000, 102.800800
1175.000000, 102.784700
1174.000000, 102.801200
1173.000000, 102.815100
1172.000000, 102.822900
1171.000000, 102.857100
1170.000000, 102.867000
1169.000000, 102.866100
1168.000000, 102.875500
1167.000000, 102.897800
1166.000000, 102.913400
1165.000000, 102.913100
1164.000000, 102.895600
1163.000000, 102.915900
1162.000000, 102.929900
1161.000000, 102.955000
1160.000000, 102.981400
1159.000000, 102.998200
1158.000000, 102.978800
1157.000000, 102.964300
1156.000000, 103.011700
1155.000000, 103.024900
1154.000000, 103.033300
1153.000000, 103.056300
1152.000000, 103.066500
1151.000000, 103.100100
1150.000000, 103.100500
1149.000000, 103.098100
1148.000000, 103.137200
1147.000000, 103.144100
1146.000000, 103.160800
1145.000000, 103.157300
1144.000000, 103.162600
1143.000000, 103.196100
1142.000000, 103.198700
1141.000000, 103.195600
1140.000000, 103.231300
1139.000000, 103.261000
1138.000000, 103.215000
1137.000000, 103.254900
1136.000000, 103.274800
1135.000000, 103.274400
1134.000000, 103.318700
1133.000000, 103.309800
1132.000000, 103.320200
1131.000000, 103.334000
1130.000000, 103.319400
1129.000000, 103.336200
1128.000000, 103.369500
1127.000000, 103.388000
1126.000000, 103.445200
1125.000000, 103.453600
1124.000000, 103.478400
1123.000000, 103.489400
1122.000000, 103.467200
1121.000000, 103.512100
1120.000000, 103.489200
1119.000000, 103.482200
1118.000000, 103.522600
1117.000000, 103.500700
1116.000000, 103.541900
1115.000000, 103.546600
1114.000000, 103.597200
1113.000000, 103.630100
1112.000000, 103.651500
1111.000000, 103.610100
1110.000000, 103.635100
1109.000000, 103.634400
1108.000000, 103.687100
1107.000000, 103.654700
1106.000000, 103.655800
1105.000000, 103.669400
1104.000000, 103.717300
1103.000000, 103.730000
1102.000000, 103.740300
1101.000000, 103.727900
1100.000000, 103.764500
1099.000000, 103.776800
1098.000000, 103.785700
1097.000000, 103.781900
1096.000000, 103.825500
1095.000000, 103.836700
1094.000000, 103.861600
1093.000000, 103.865500
1092.000000, 103.886000
1091.000000, 103.919100
1090.000000, 103.914900
1089.000000, 103.946000
1088.000000, 103.996800
1087.000000, 103.980400
1086.000000, 104.009200
1085.000000, 103.992200
1084.000000, 104.025300
1083.000000, 104.066800
1082.000000, 104.091200
1081.000000, 104.118200
1080.000000, 104.125000
1079.000000, 104.142700
1078.000000, 104.171500
1077.000000, 104.178500
1076.000000, 104.190900
1075.000000, 104.198000
1074.000000, 104.214400
1073.000000, 104.271900
1072.000000, 104.328500
1071.000000, 104.328300
1070.000000, 104.308500
1069.000000, 104.348800
1068.000000, 104.383000
1067.000000, 104.383800
1066.000000, 104.454100
1065.000000, 104.413000
1064.000000, 104.451300
1063.000000, 104.517800
1062.000000, 104.567700
1061.000000, 104.530900
1060.000000, 104.529000
1059.000000, 104.575300
1058.000000, 104.620600
1057.000000, 104.599200
1056.000000, 104.612900
1055.000000, 104.638900
1054.000000, 104.727300
1053.000000, 104.716700
1052.000000, 104.753300
1051.000000, 104.780100
1050.000000, 104.764700
1049.000000, 104.805600
1048.000000, 104.835100
1047.000000, 104.851100
1046.000000, 104.920600
1045.000000, 104.929800
1044.000000, 104.914500
1043.000000, 104.973000
1042.000000, 105.008900
1041.000000, 105.017700
1040.000000, 105.089900
1039.000000, 105.144500
1038.000000, 105.167300
1037.000000, 105.166700
1036.000000, 105.173100
1035.000000, 105.198500
1034.000000, 105.253300
1033.000000, 105.283100
1032.000000, 105.284000
1031.000000, 105.301500
1030.000000, 105.337900
1029.000000, 105.401300
1028.000000, 105.452500
1027.000000, 105.467200
1026.000000, 105.500000
1025.000000, 105.503000
1024.000000, 105.508400
1023.000000, 105.575800
1022.000000, 105.604400
1021.000000, 105.616900
1020.000000, 105.671500
1019.000000, 105.707800
1018.000000, 105.744100
1017.000000, 105.819200
1016.000000, 105.821200
1015.000000, 105.846200
1014.000000, 105.886900
1013.000000, 105.911000
1012.000000, 105.936800
1011.000000, 105.946400
1010.000000, 106.018100
1009.000000, 106.081600
1008.000000, 106.109400
1007.000000, 106.138000
1006.000000, 106.190500
1005.000000, 106.230100
1004.000000, 106.235200
1003.000000, 106.274100
1002.000000, 106.344400
1001.000000, 106.425300
1000.000000, 106.442600
999.000000, 106.469900
998.000000, 106.511500
997.000000, 106.555400
996.000000, 106.615100
995.000000, 106.638100
994.000000, 106.695000
993.000000, 106.712100
992.000000, 106.770300
991.000000, 106.822900
990.000000, 106.852600
989.000000, 106.904100
988.000000, 106.968700
987.000000, 107.024200
986.000000, 107.072700
985.000000, 107.136100
984.000000, 107.171000
983.000000, 107.162700
982.000000, 107.241200
981.000000, 107.302500
980.000000, 107.324600
979.000000, 107.393400
978.000000, 107.456900
977.000000, 107.497600
976.000000, 107.541200
975.000000, 107.585500
974.000000, 107.628400
973.000000, 107.696400
972.000000, 107.774100
971.000000, 107.834800
970.000000, 107.899700
969.000000, 107.930600
968.000000, 107.987900
967.000000, 108.057900
966.000000, 108.116300
965.000000, 108.164100
964.000000, 108.209900
963.000000, 108.314900
962.000000, 108.392900
961.000000, 108.424500
960.000000, 108.447600
959.000000, 108.555000
958.000000, 108.672000
957.000000, 108.711800
956.000000, 108.748300
955.000000, 108.818800
954.000000, 108.891100
953.000000, 108.943000
952.000000, 109.043400
951.000000, 109.149900
950.000000, 109.221000
949.000000, 109.273400
948.000000, 109.355300
947.000000, 109.417300
946.000000, 109.480100
945.000000, 109.529400
944.000000, 109.578000
943.000000, 109.713300
942.000000, 109.826100
941.000000, 109.927200
940.000000, 110.003800
939.000000, 110.032900
938.000000, 110.138700
937.000000, 110.246300
936.000000, 110.364300
935.000000, 110.409800
934.000000, 110.432500
933.000000, 110.558900
932.000000, 110.676100
931.000000, 110.784200
930.000000, 110.853100
929.000000, 110.955700
928.000000, 111.085200
927.000000, 111.155700
926.000000, 111.235100
925.000000, 111.322300
924.000000, 111.466300
923.000000, 111.617700
922.000000, 111.737100
921.000000, 111.792000
920.000000, 111.901400
919.000000, 112.075600
918.000000, 112.181600
917.000000, 112.232400
916.000000, 112.363500
915.000000, 112.527300
914.000000, 112.675200
913.000000, 112.761200
912.000000, 112.858700
911.000000, 112.966500
910.000000, 113.105000
909.000000, 113.246800
908.000000, 113.380400
907.000000, 113.502500
906.000000, 113.623400
905.000000, 113.743000
904.000000, 113.914600
903.000000, 114.073000
902.000000, 114.164700
901.000000, 114.258400
900.000000, 114.398300
