nm, %R
1800.000000, 102.936600
1799.000000, 102.904200
1798.000000, 102.899800
1797.000000, 102.877600
1796.000000, 102.894700
1795.000000, 102.820600
1794.000000, 102.917400
1793.000000, 102.864100
1792.000000, 102.860900
1791.000000, 102.879100
1790.000000, 102.869500
1789.000000, 102.880900
1788.000000, 102.871000
1787.000000, 102.885300
1786.000000, 102.854800
1785.000000, 102.836100
1784.000000, 102.878100
1783.000000, 102.871600
1782.000000, 102.880400
1781.000000, 102.874000
1780.000000, 102.881600
1779.000000, 102.890000
1778.000000, 102.795900
1777.000000, 102.858800
1776.000000, 102.844100
1775.000000, 102.880700
1774.000000, 102.836000
1773.000000, 102.850800
1772.000000, 102.848900
1771.000000, 102.841600
1770.000000, 102.850000
1769.000000, 102.804000
1768.000000, 102.872000
1767.000000, 102.857000
1766.000000, 102.839300
1765.000000, 102.842200
1764.000000, 102.797200
1763.000000, 102.796400
1762.000000, 102.853000
1761.000000, 102.881000
1760.000000, 102.847500
1759.000000, 102.834300
1758.000000, 102.864000
1757.000000, 102.847600
1756.000000, 102.870500
1755.000000, 102.883700
1754.000000, 102.841900
1753.000000, 102.837700
1752.000000, 102.842400
1751.000000, 102.831700
1750.000000, 102.863900
1749.000000, 102.838700
1748.000000, 102.852200
1747.000000, 102.848200
1746.000000, 102.847100
1745.000000, 102.790900
1744.000000, 102.798500
1743.000000, 102.803000
1742.000000, 102.817600
1741.000000, 102.814300
1740.000000, 102.807600
1739.000000, 102.819700
1738.000000, 102.809400
1737.000000, 102.777000
1736.000000, 102.802800
1735.000000, 102.828200
1734.000000, 102.827500
1733.000000, 102.823700
1732.000000, 102.812400
1731.000000, 102.811900
1730.000000, 102.805300
1729.000000, 102.785300
1728.000000, 102.829900
1727.000000, 102.813400
1726.000000, 102.802500
1725.000000, 102.800900
1724.000000, 102.780600
1723.000000, 102.788300
1722.000000, 102.794900
1721.000000, 102.768100
1720.000000, 102.805300
1719.000000, 102.774800
1718.000000, 102.798400
1717.000000, 102.819300
1716.000000, 102.784400
1715.000000, 102.789600
1714.000000, 102.806500
1713.000000, 102.773800
1712.000000, 102.788300
1711.000000, 102.815900
1710.000000, 102.801800
1709.000000, 102.756400
1708.000000, 102.780800
1707.000000, 102.789100
1706.000000, 102.770200
1705.000000, 102.785700
1704.000000, 102.782700
1703.000000, 102.735500
1702.000000, 102.743500
1701.000000, 102.759600
1700.000000, 102.745600
1699.000000, 102.724600
1698.000000, 102.724400
1697.000000, 102.728200
1696.000000, 102.721000
1695.000000, 102.707900
1694.000000, 102.699700
1693.000000, 102.681700
1692.000000, 102.696200
1691.000000, 102.706500
1690.000000, 102.700400
1689.000000, 102.685600
1688.000000, 102.678300
1687.000000, 102.676500
1686.000000, 102.661000
1685.000000, 102.674200
1684.000000, 102.717300
1683.000000, 102.697100
1682.000000, 102.671800
1681.000000, 102.680300
1680.000000, 102.691700
1679.000000, 102.682900
1678.000000, 102.680400
1677.000000, 102.686500
1676.000000, 102.671800
1675.000000, 102.676800
1674.000000, 102.715900
1673.000000, 102.694400
1672.000000, 102.704700
1671.000000, 102.682400
1670.000000, 102.639100
1669.000000, 102.613800
1668.000000, 102.627100
1667.000000, 102.639100
1666.000000, 102.620800
1665.000000, 102.643400
1664.000000, 102.639700
1663.000000, 102.602200
1662.000000, 102.599300
1661.000000, 102.630100
1660.000000, 102.616600
1659.000000, 102.610400
1658.000000, 102.596600
1657.000000, 102.602500
1656.000000, 102.590600
1655.000000, 102.557000
1654.000000, 102.582500
1653.000000, 102.584300
1652.000000, 102.589400
1651.000000, 102.564700
1650.000000, 102.552300
1649.000000, 102.580800
1648.000000, 102.601100
1647.000000, 102.579700
1646.000000, 102.582700
1645.000000, 102.561800
1644.000000, 102.548100
1643.000000, 102.555500
1642.000000, 102.542800
1641.000000, 102.521100
1640.000000, 102.516900
1639.000000, 102.513100
1638.000000, 102.546400
1637.000000, 102.542600
1636.000000, 102.569700
1635.000000, 102.548800
1634.000000, 102.546700
1633.000000, 102.554200
1632.000000, 102.555300
1631.000000, 102.541700
1630.000000, 102.527300
1629.000000, 102.533300
1628.000000, 102.503200
1627.000000, 102.496500
1626.000000, 102.522400
1625.000000, 102.512500
1624.000000, 102.536300
1623.000000, 102.540000
1622.000000, 102.535600
1621.000000, 102.530300
1620.000000, 102.539500
1619.000000, 102.527400
1618.000000, 102.492800
1617.000000, 102.525300
1616.000000, 102.484100
1615.000000, 102.498700
1614.000000, 102.520500
1613.000000, 102.477400
1612.000000, 102.504700
1611.000000, 102.518100
1610.000000, 102.503800
1609.000000, 102.507000
1608.000000, 102.516500
1607.000000, 102.517900
1606.000000, 102.474300
1605.000000, 102.520500
1604.000000, 102.504400
1603.000000, 102.453100
1602.000000, 102.495600
1601.000000, 102.517700
1600.000000, 102.511500
1599.000000, 102.522600
1598.000000, 102.537400
1597.000000, 102.516500
1596.000000, 102.483200
1595.000000, 102.520300
1594.000000, 102.512100
1593.000000, 102.506800
1592.000000, 102.521700
1591.000000, 102.522900
1590.000000, 102.518200
1589.000000, 102.521100
1588.000000, 102.495000
1587.000000, 102.508200
1586.000000, 102.479100
1585.000000, 102.503400
1584.000000, 102.502400
1583.000000, 102.514200
1582.000000, 102.454100
1581.000000, 102.506300
1580.000000, 102.507800
1579.000000, 102.505200
1578.000000, 102.496000
1577.000000, 102.504600
1576.000000, 102.486400
1575.000000, 102.430000
1574.000000, 102.452100
1573.000000, 102.513700
1572.000000, 102.492700
1571.000000, 102.478700
1570.000000, 102.466000
1569.000000, 102.463400
1568.000000, 102.476000
1567.000000, 102.473600
1566.000000, 102.500300
1565.000000, 102.507000
1564.000000, 102.510000
1563.000000, 102.447600
1562.000000, 102.448800
1561.000000, 102.441800
1560.000000, 102.469600
1559.000000, 102.475800
1558.000000, 102.458400
1557.000000, 102.467700
1556.000000, 102.468500
1555.000000, 102.465500
1554.000000, 102.447300
1553.000000, 102.457700
1552.000000, 102.459300
1551.000000, 102.461000
1550.000000, 102.471900
1549.000000, 102.486900
1548.000000, 102.500900
1547.000000, 102.471400
1546.000000, 102.476900
1545.000000, 102.517300
1544.000000, 102.506300
1543.000000, 102.491900
1542.000000, 102.495200
1541.000000, 102.502100
1540.000000, 102.522000
1539.000000, 102.490200
1538.000000, 102.483200
1537.000000, 102.495500
1536.000000, 102.475600
1535.000000, 102.489300
1534.000000, 102.495500
1533.000000, 102.500200
1532.000000, 102.461900
1531.000000, 102.497400
1530.000000, 102.473800
1529.000000, 102.496600
1528.000000, 102.504200
1527.000000, 102.512400
1526.000000, 102.497500
1525.000000, 102.480900
1524.000000, 102.487200
1523.000000, 102.517500
1522.000000, 102.520200
1521.000000, 102.512700
1520.000000, 102.490400
1519.000000, 102.493000
1518.000000, 102.499100
1517.000000, 102.538700
1516.000000, 102.536900
1515.000000, 102.523300
1514.000000, 102.509600
1513.000000, 102.511700
1512.000000, 102.494700
1511.000000, 102.534600
1510.000000, 102.526500
1509.000000, 102.495900
1508.000000, 102.496800
1507.000000, 102.515500
1506.000000, 102.510900
1505.000000, 102.517200
1504.000000, 102.500400
1503.000000, 102.464600
1502.000000, 102.525000
1501.000000, 102.525700
1500.000000, 102.513100
1499.000000, 102.510600
1498.000000, 102.506400
1497.000000, 102.475700
1496.000000, 102.468000
1495.000000, 102.518900
1494.000000, 102.484800
1493.000000, 102.484000
1492.000000, 102.498200
1491.000000, 102.468100
1490.000000, 102.477900
1489.000000, 102.481000
1488.000000, 102.495900
1487.000000, 102.453500
1486.000000, 102.495900
1485.000000, 102.535700
1484.000000, 102.545500
1483.000000, 102.519900
1482.000000, 102.538800
1481.000000, 102.506000
1480.000000, 102.531100
1479.000000, 102.547300
1478.000000, 102.568800
1477.000000, 102.560100
1476.000000, 102.537100
1475.000000, 102.521400
1474.000000, 102.559700
1473.000000, 102.544800
1472.000000, 102.542000
1471.000000, 102.529300
1470.000000, 102.553700
1469.000000, 102.573800
1468.000000, 102.562700
1467.000000, 102.560300
1466.000000, 102.552200
1465.000000, 102.556400
1464.000000, 102.550300
1463.000000, 102.522600
1462.000000, 102.527200
1461.000000, 102.560800
1460.000000, 102.543700
1459.000000, 102.549300
1458.000000, 102.555800
1457.000000, 102.550300
1456.000000, 102.540600
1455.000000, 102.521500
1454.000000, 102.517400
1453.000000, 102.539200
1452.000000, 102.554400
1451.000000, 102.518000
1450.000000, 102.544000
1449.000000, 102.557300
1448.000000, 102.543500
1447.000000, 102.544400
1446.000000, 102.525500
1445.000000, 102.532000
1444.000000, 102.558900
1443.000000, 102.573600
1442.000000, 102.570500
1441.000000, 102.569600
1440.000000, 102.573900
1439.000000, 102.585500
1438.000000, 102.598900
1437.000000, 102.583500
1436.000000, 102.562000
1435.000000, 102.567800
1434.000000, 102.576100
1433.000000, 102.600100
1432.000000, 102.614500
1431.000000, 102.598400
1430.000000, 102.578500
1429.000000, 102.601700
1428.000000, 102.618600
1427.000000, 102.600900
1426.000000, 102.617700
1425.000000, 102.620100
1424.000000, 102.607000
1423.000000, 102.626300
1422.000000, 102.630000
1421.000000, 102.635200
1420.000000, 102.627900
1419.000000, 102.610700
1418.000000, 102.640800
1417.000000, 102.666600
1416.000000, 102.658300
1415.000000, 102.650900
1414.000000, 102.655100
1413.000000, 102.645300
1412.000000, 102.674400
1411.000000, 102.716100
1410.000000, 102.720700
1409.000000, 102.697500
1408.000000, 102.738200
1407.000000, 102.757400
1406.000000, 102.749900
1405.000000, 102.772800
1404.000000, 102.797900
1403.000000, 102.801700
1402.000000, 102.798800
1401.000000, 102.794600
1400.000000, 102.809700
1399.000000, 102.837800
1398.000000, 102.843300
1397.000000, 102.829500
1396.000000, 102.843800
1395.000000, 102.855800
1394.000000, 102.843000
1393.000000, 102.848400
1392.000000, 102.806900
1391.000000, 102.778900
1390.000000, 102.789900
1389.000000, 102.832600
1388.000000, 102.802400
1387.000000, 102.791600
1386.000000, 102.793000
1385.000000, 102.816300
1384.000000, 102.872000
1383.000000, 102.913300
1382.000000, 102.923900
1381.000000, 102.906600
1380.000000, 102.925600
1379.000000, 102.926700
1378.000000, 102.862200
1377.000000, 102.776800
1376.000000, 102.763700
1375.000000, 102.764500
1374.000000, 102.767900
1373.000000, 102.792000
1372.000000, 102.785700
1371.000000, 102.782700
1370.000000, 102.791600
1369.000000, 102.839000
1368.000000, 102.871000
1367.000000, 102.868600
1366.000000, 102.887600
1365.000000, 102.914400
1364.000000, 102.941800
1363.000000, 102.972200
1362.000000, 102.959900
1361.000000, 102.922200
1360.000000, 102.969300
1359.000000, 102.967500
1358.000000, 102.969000
1357.000000, 102.926000
1356.000000, 102.882500
1355.000000, 102.844700
1354.000000, 102.883400
1353.000000, 102.874000
1352.000000, 102.866900
1351.000000, 102.822000
1350.000000, 102.797800
1349.000000, 102.801000
1348.000000, 102.779600
1347.000000, 102.779600
1346.000000, 102.786300
1345.000000, 102.747700
1344.000000, 102.802400
1343.000000, 102.769100
1342.000000, 102.722700
1341.000000, 102.778700
1340.000000, 102.769900
1339.000000, 102.788000
1338.000000, 102.810700
1337.000000, 102.753000
1336.000000, 102.752500
1335.000000, 102.770100
1334.000000, 102.768200
1333.000000, 102.740800
1332.000000, 102.747800
1331.000000, 102.778200
1330.000000, 102.736000
1329.000000, 102.777900
1328.000000, 102.741000
1327.000000, 102.754700
1326.000000, 102.794000
1325.000000, 102.771400
1324.000000, 102.797800
1323.000000, 102.790400
1322.000000, 102.803800
1321.000000, 102.822500
1320.000000, 102.876700
1319.000000, 102.814300
1318.000000, 102.849200
1317.000000, 102.862700
1316.000000, 102.827500
1315.000000, 102.867300
1314.000000, 102.879900
1313.000000, 102.872300
1312.000000, 102.837000
1311.000000, 102.888400
1310.000000, 102.930700
1309.000000, 102.881300
1308.000000, 102.884300
1307.000000, 102.916200
1306.000000, 102.923200
1305.000000, 102.960000
1304.000000, 102.925900
1303.000000, 102.922300
1302.000000, 102.948300
1301.000000, 102.931500
1300.000000, 102.902900
1299.000000, 102.911000
1298.000000, 102.967000
1297.000000, 102.955800
1296.000000, 102.917400
1295.000000, 102.991100
1294.000000, 102.958600
1293.000000, 102.973000
1292.000000, 102.986200
1291.000000, 102.946600
1290.000000, 102.944100
1289.000000, 102.961900
1288.000000, 102.989300
1287.000000, 102.967800
1286.000000, 102.988100
1285.000000, 102.969100
1284.000000, 102.985400
1283.000000, 102.954600
1282.000000, 102.963800
1281.000000, 102.989100
1280.000000, 103.002800
1279.000000, 103.001100
1278.000000, 103.005600
1277.000000, 103.039200
1276.000000, 103.076800
1275.000000, 103.053900
1274.000000, 103.047300
1273.000000, 103.058000
1272.000000, 103.039100
1271.000000, 103.060500
1270.000000, 103.102300
1269.000000, 103.080800
1268.000000, 103.056500
1267.000000, 103.075600
1266.000000, 103.106000
1265.000000, 103.126800
1264.000000, 103.120300
1263.000000, 103.134000
1262.000000, 103.132600
1261.000000, 103.144000
1260.000000, 103.140900
1259.000000, 103.128800
1258.000000, 103.156300
1257.000000, 103.133600
1256.000000, 103.135900
1255.000000, 103.167600
1254.000000, 103.197100
1253.000000, 103.165200
1252.000000, 103.151900
1251.000000, 103.165000
1250.000000, 103.154800
1249.000000, 103.146500
1248.000000, 103.154700
1247.000000, 103.188200
1246.000000, 103.180100
1245.000000, 103.191200
1244.000000, 103.197600
1243.000000, 103.229000
1242.000000, 103.224600
1241.000000, 103.218200
1240.000000, 103.235200
1239.000000, 103.227700
1238.000000, 103.243200
1237.000000, 103.239000
1236.000000, 103.260700
1235.000000, 103.270800
1234.000000, 103.303600
1233.000000, 103.287900
1232.000000, 103.301200
1231.000000, 103.321200
1230.000000, 103.325300
1229.000000, 103.326700
1228.000000, 103.339700
1227.000000, 103.378500
1226.000000, 103.365900
1225.000000, 103.376100
1224.000000, 103.369400
1223.000000, 103.392700
1222.000000, 103.423100
1221.000000, 103.424700
1220.000000, 103.416500
1219.000000, 103.442300
1218.000000, 103.448800
1217.000000, 103.457400
1216.000000, 103.496200
1215.000000, 103.484800
1214.000000, 103.457600
1213.000000, 103.475800
1212.000000, 103.503600
1211.000000, 103.481900
1210.000000, 103.480300
1209.000000, 103.499700
1208.000000, 103.516000
1207.000000, 103.503300
1206.000000, 103.514700
1205.000000, 103.529500
1204.000000, 103.518600
1203.000000, 103.547100
1202.000000, 103.547000
1201.000000, 103.538800
1200.000000, 103.541100
1199.000000, 103.532500
1198.000000, 103.539200
1197.000000, 103.574700
1196.000000, 103.581600
1195.000000, 103.587400
1194.000000, 103.598400
1193.000000, 103.604200
1192.000000, 103.611400
1191.000000, 103.623900
1190.000000, 103.643100
1189.000000, 103.664400
1188.000000, 103.690800
1187.000000, 103.733000
1186.000000, 103.763700
1185.000000, 103.744800
1184.000000, 103.722300
1183.000000, 103.743700
1182.000000, 103.746700
1181.000000, 103.752000
1180.000000, 103.788600
1179.000000, 103.790600
1178.000000, 103.767800
1177.000000, 103.782400
1176.000000, 103.824300
1175.000000, 103.836700
1174.000000, 103.838100
1173.000000, 103.829700
1172.000000, 103.820000
1171.000000, 103.846300
1170.000000, 103.871500
1169.000000, 103.892100
1168.000000, 103.880200
1167.000000, 103.862800
1166.000000, 103.874800
1165.000000, 103.911800
1164.000000, 103.926300
1163.000000, 103.964100
1162.000000, 103.977200
1161.000000, 103.974000
1160.000000, 103.997000
1159.000000, 104.016500
1158.000000, 104.029000
1157.000000, 104.040300
1156.000000, 104.017400
1155.000000, 104.018800
1154.000000, 104.040500
1153.000000, 104.056400
1152.000000, 104.060400
1151.000000, 104.095500
1150.000000, 104.099700
1149.000000, 104.104500
1148.000000, 104.134400
1147.000000, 104.152200
1146.000000, 104.152300
1145.000000, 104.149000
1144.000000, 104.179900
1143.000000, 104.189900
1142.000000, 104.193800
1141.000000, 104.214600
1140.000000, 104.193900
1139.000000, 104.216500
1138.000000, 104.244400
1137.000000, 104.255800
1136.000000, 104.268000
1135.000000, 104.300100
1134.000000, 104.336800
1133.000000, 104.305300
1132.000000, 104.316100
1131.000000, 104.337600
1130.000000, 104.348400
1129.000000, 104.378000
1128.000000, 104.386400
1127.000000, 104.358400
1126.000000, 104.368900
1125.000000, 104.403100
1124.000000, 104.412000
1123.000000, 104.470700
1122.000000, 104.469100
1121.000000, 104.505700
1120.000000, 104.509800
1119.000000, 104.504200
1118.000000, 104.508400
1117.000000, 104.534200
1116.000000, 104.564600
1115.000000, 104.572400
1114.000000, 104.547000
1113.000000, 104.580500
1112.000000, 104.612900
1111.000000, 104.613600
1110.000000, 104.608500
1109.000000, 104.641800
1108.000000, 104.641700
1107.000000, 104.651700
1106.000000, 104.694700
1105.000000, 104.656100
1104.000000, 104.668400
1103.000000, 104.691200
1102.000000, 104.722000
1101.000000, 104.740800
1100.000000, 104.775600
1099.000000, 104.774200
1098.000000, 104.752200
1097.000000, 104.807800
1096.000000, 104.811100
1095.000000, 104.813200
1094.000000, 104.793300
1093.000000, 104.804600
1092.000000, 104.873800
1091.000000, 104.882100
1090.000000, 104.902100
1089.000000, 104.926800
1088.000000, 104.917400
1087.000000, 104.984600
1086.000000, 104.980900
1085.000000, 105.035600
1084.000000, 105.002000
1083.000000, 105.026900
1082.000000, 105.022400
1081.000000, 105.089100
1080.000000, 105.094800
1079.000000, 105.156900
1078.000000, 105.215500
1077.000000, 105.172200
1076.000000, 105.191900
1075.000000, 105.217700
1074.000000, 105.226300
1073.000000, 105.276000
1072.000000, 105.228200
1071.000000, 105.246100
1070.000000, 105.321000
1069.000000, 105.338000
1068.000000, 105.344900
1067.000000, 105.397100
1066.000000, 105.366700
1065.000000, 105.394600
1064.000000, 105.420100
1063.000000, 105.482600
1062.000000, 105.504900
1061.000000, 105.446700
1060.000000, 105.559500
1059.000000, 105.557900
1058.000000, 105.579500
1057.000000, 105.589800
1056.000000, 105.606400
1055.000000, 105.606300
1054.000000, 105.658900
1053.000000, 105.662500
1052.000000, 105.736800
1051.000000, 105.743500
1050.000000, 105.731500
1049.000000, 105.782400
1048.000000, 105.841000
1047.000000, 105.824500
1046.000000, 105.842200
1045.000000, 105.878700
1044.000000, 105.910500
1043.000000, 105.969000
1042.000000, 105.990500
1041.000000, 105.989300
1040.000000, 105.987100
1039.000000, 106.052800
1038.000000, 106.075300
1037.000000, 106.112800
1036.000000, 106.143800
1035.000000, 106.159900
1034.000000, 106.194600
1033.000000, 106.232400
1032.000000, 106.296600
1031.000000, 106.284800
1030.000000, 106.328400
1029.000000, 106.375500
1028.000000, 106.377000
1027.000000, 106.407600
1026.000000, 106.457000
1025.000000, 106.476100
1024.000000, 106.512800
1023.000000, 106.519200
1022.000000, 106.553500
1021.000000, 106.608000
1020.000000, 106.635600
1019.000000, 106.667100
1018.000000, 106.669200
1017.000000, 106.719800
1016.000000, 106.750000
1015.000000, 106.771600
1014.000000, 106.820700
1013.000000, 106.820700
1012.000000, 106.894000
1011.000000, 106.921800
1010.000000, 106.936400
1009.000000, 106.995700
1008.000000, 107.089500
1007.000000, 107.086300
1006.000000, 107.101100
1005.000000, 107.154900
1004.000000, 107.254300
1003.000000, 107.238100
1002.000000, 107.275000
1001.000000, 107.321800
1000.000000, 107.374100
999.000000, 107.425400
998.000000, 107.440400
997.000000, 107.484800
996.000000, 107.547500
995.000000, 107.558600
994.000000, 107.603400
993.000000, 107.659100
992.000000, 107.698000
991.000000, 107.725100
990.000000, 107.783300
989.000000, 107.853800
988.000000, 107.891900
987.000000, 107.921900
986.000000, 107.993000
985.000000, 108.028400
984.000000, 108.039600
983.000000, 108.112600
982.000000, 108.170500
981.000000, 108.195900
980.000000, 108.268500
979.000000, 108.321600
978.000000, 108.348700
977.000000, 108.435500
976.000000, 108.467800
975.000000, 108.502700
974.000000, 108.558500
973.000000, 108.618700
972.000000, 108.715000
971.000000, 108.743800
970.000000, 108.769400
969.000000, 108.846700
968.000000, 108.902400
967.000000, 108.957800
966.000000, 109.070200
965.000000, 109.119100
964.000000, 109.136000
963.000000, 109.208300
962.000000, 109.318900
961.000000, 109.396000
960.000000, 109.420500
959.000000, 109.445700
958.000000, 109.554100
957.000000, 109.652700
956.000000, 109.703500
955.000000, 109.759200
954.000000, 109.843300
953.000000, 109.914700
952.000000, 109.964400
951.000000, 110.047600
950.000000, 110.120600
949.000000, 110.220600
948.000000, 110.275700
947.000000, 110.296700
946.000000, 110.375600
945.000000, 110.495000
944.000000, 110.572000
943.000000, 110.616900
942.000000, 110.694000
941.000000, 110.819900
940.000000, 110.936100
939.000000, 110.980300
938.000000, 111.030800
937.000000, 111.143200
936.000000, 111.235900
935.000000, 111.310500
934.000000, 111.390700
933.000000, 111.481000
932.000000, 111.574800
931.000000, 111.685400
930.000000, 111.800100
929.000000, 111.859100
928.000000, 111.947000
927.000000, 112.024200
926.000000, 112.147600
925.000000, 112.306500
924.000000, 112.381000
923.000000, 112.467500
922.000000, 112.600700
921.000000, 112.741400
920.000000, 112.821300
919.000000, 112.933300
918.000000, 113.083200
917.000000, 113.185800
916.000000, 113.261900
915.000000, 113.407100
914.000000, 113.515400
913.000000, 113.636400
912.000000, 113.777300
911.000000, 113.850200
910.000000, 113.992200
909.000000, 114.134500
908.000000, 114.253400
907.000000, 114.369600
906.000000, 114.536100
905.000000, 114.646100
904.000000, 114.774800
903.000000, 114.865400
902.000000, 114.973300
901.000000, 115.102200
900.000000, 115.250300
