nm, %T
1800.000000, 92.371085
1799.000000, 92.335024
1798.000000, 92.362108
1797.000000, 92.364437
1796.000000, 92.389045
1795.000000, 92.325975
1794.000000, 92.437852
1793.000000, 92.470035
1792.000000, 92.442822
1791.000000, 92.457711
1790.000000, 92.494985
1789.000000, 92.475510
1788.000000, 92.515234
1787.000000, 92.545092
1786.000000, 92.536610
1785.000000, 92.477108
1784.000000, 92.525298
1783.000000, 92.494854
1782.000000, 92.499888
1781.000000, 92.495129
1780.000000, 92.536652
1779.000000, 92.432741
1778.000000, 92.542433
1777.000000, 92.617522
1776.000000, 92.499174
1775.000000, 92.521645
1774.000000, 92.467059
1773.000000, 92.541876
1772.000000, 92.553637
1771.000000, 92.541915
1770.000000, 92.519335
1769.000000, 92.566575
1768.000000, 92.563847
1767.000000, 92.555917
1766.000000, 92.588523
1765.000000, 92.540836
1764.000000, 92.576538
1763.000000, 92.581794
1762.000000, 92.571655
1761.000000, 92.651532
1760.000000, 92.611816
1759.000000, 92.618679
1758.000000, 92.626068
1757.000000, 92.664183
1756.000000, 92.634547
1755.000000, 92.637010
1754.000000, 92.639963
1753.000000, 92.624916
1752.000000, 92.661408
1751.000000, 92.685518
1750.000000, 92.697986
1749.000000, 92.705528
1748.000000, 92.680363
1747.000000, 92.712788
1746.000000, 92.710872
1745.000000, 92.710305
1744.000000, 92.718515
1743.000000, 92.706524
1742.000000, 92.746559
1741.000000, 92.745379
1740.000000, 92.714811
1739.000000, 92.743218
1738.000000, 92.776386
1737.000000, 92.805446
1736.000000, 92.763490
1735.000000, 92.762685
1734.000000, 92.789772
1733.000000, 92.796658
1732.000000, 92.827589
1731.000000, 92.826207
1730.000000, 92.834281
1729.000000, 92.854879
1728.000000, 92.830688
1727.000000, 92.868970
1726.000000, 92.894621
1725.000000, 92.833154
1724.000000, 92.776544
1723.000000, 92.889128
1722.000000, 92.903940
1721.000000, 92.898841
1720.000000, 92.927082
1719.000000, 92.893687
1718.000000, 92.924199
1717.000000, 92.931328
1716.000000, 92.930606
1715.000000, 92.906900
1714.000000, 92.923519
1713.000000, 92.941281
1712.000000, 92.967261
1711.000000, 92.980376
1710.000000, 92.980939
1709.000000, 92.977467
1708.000000, 92.951502
1707.000000, 92.897797
1706.000000, 92.940122
1705.000000, 92.969977
1704.000000, 93.023493
1703.000000, 93.022215
1702.000000, 93.009773
1701.000000, 93.025345
1700.000000, 92.998612
1699.000000, 92.982082
1698.000000, 93.000231
1697.000000, 93.037403
1696.000000, 93.065392
1695.000000, 93.061924
1694.000000, 93.055460
1693.000000, 93.052717
1692.000000, 93.062471
1691.000000, 93.081009
1690.000000, 93.067578
1689.000000, 93.046159
1688.000000, 93.075898
1687.000000, 93.064380
1686.000000, 93.057468
1685.000000, 93.100827
1684.000000, 93.104119
1683.000000, 93.113005
1682.000000, 93.143130
1681.000000, 93.150718
1680.000000, 93.146688
1679.000000, 93.128220
1678.000000, 93.119566
1677.000000, 93.148343
1676.000000, 93.192795
1675.000000, 93.183185
1674.000000, 93.169000
1673.000000, 93.205609
1672.000000, 93.207857
1671.000000, 93.175368
1670.000000, 93.201246
1669.000000, 93.214309
1668.000000, 93.194341
1667.000000, 93.194982
1666.000000, 93.172403
1665.000000, 93.172629
1664.000000, 93.204139
1663.000000, 93.217827
1662.000000, 93.208232
1661.000000, 93.214651
1660.000000, 93.233058
1659.000000, 93.230791
1658.000000, 93.270458
1657.000000, 93.277584
1656.000000, 93.261777
1655.000000, 93.276284
1654.000000, 93.225722
1653.000000, 93.241606
1652.000000, 93.263521
1651.000000, 93.257341
1650.000000, 93.236302
1649.000000, 93.250284
1648.000000, 93.236396
1647.000000, 93.271990
1646.000000, 93.280056
1645.000000, 93.258995
1644.000000, 93.265712
1643.000000, 93.284714
1642.000000, 93.312073
1641.000000, 93.321828
1640.000000, 93.281838
1639.000000, 93.332008
1638.000000, 93.333879
1637.000000, 93.283426
1636.000000, 93.276643
1635.000000, 93.333047
1634.000000, 93.370633
1633.000000, 93.349176
1632.000000, 93.363850
1631.000000, 93.349857
1630.000000, 93.358764
1629.000000, 93.369246
1628.000000, 93.348960
1627.000000, 93.351366
1626.000000, 93.351198
1625.000000, 93.350678
1624.000000, 93.395287
1623.000000, 93.383263
1622.000000, 93.400215
1621.000000, 93.355625
1620.000000, 93.313557
1619.000000, 93.352469
1618.000000, 93.384163
1617.000000, 93.384747
1616.000000, 93.400945
1615.000000, 93.363386
1614.000000, 93.349421
1613.000000, 93.425872
1612.000000, 93.448023
1611.000000, 93.461266
1610.000000, 93.442589
1609.000000, 93.405284
1608.000000, 93.433167
1607.000000, 93.412314
1606.000000, 93.377618
1605.000000, 93.414876
1604.000000, 93.390360
1603.000000, 93.404570
1602.000000, 93.399939
1601.000000, 93.417808
1600.000000, 93.408984
1599.000000, 93.468915
1598.000000, 93.431273
1597.000000, 93.425391
1596.000000, 93.425101
1595.000000, 93.430516
1594.000000, 93.408691
1593.000000, 93.460297
1592.000000, 93.448401
1591.000000, 93.417940
1590.000000, 93.409763
1589.000000, 93.429704
1588.000000, 93.444790
1587.000000, 93.448127
1586.000000, 93.476467
1585.000000, 93.469377
1584.000000, 93.391187
1583.000000, 93.420419
1582.000000, 93.445666
1581.000000, 93.448446
1580.000000, 93.438083
1579.000000, 93.432130
1578.000000, 93.431619
1577.000000, 93.397354
1576.000000, 93.431847
1575.000000, 93.415591
1574.000000, 93.430747
1573.000000, 93.460912
1572.000000, 93.400867
1571.000000, 93.440967
1570.000000, 93.383013
1569.000000, 93.455093
1568.000000, 93.390454
1567.000000, 93.445075
1566.000000, 93.450423
1565.000000, 93.420430
1564.000000, 93.423601
1563.000000, 93.428081
1562.000000, 93.455363
1561.000000, 93.411683
1560.000000, 93.392903
1559.000000, 93.485114
1558.000000, 93.457087
1557.000000, 93.441574
1556.000000, 93.433525
1555.000000, 93.395705
1554.000000, 93.422720
1553.000000, 93.399294
1552.000000, 93.424786
1551.000000, 93.456809
1550.000000, 93.422455
1549.000000, 93.421974
1548.000000, 93.417127
1547.000000, 93.406459
1546.000000, 93.408942
1545.000000, 93.417876
1544.000000, 93.445502
1543.000000, 93.431962
1542.000000, 93.397445
1541.000000, 93.427209
1540.000000, 93.433150
1539.000000, 93.404743
1538.000000, 93.392140
1537.000000, 93.312733
1536.000000, 93.368329
1535.000000, 93.398894
1534.000000, 93.330092
1533.000000, 93.372632
1532.000000, 93.418468
1531.000000, 93.331073
1530.000000, 93.323075
1529.000000, 93.347892
1528.000000, 93.379545
1527.000000, 93.344458
1526.000000, 93.368118
1525.000000, 93.384684
1524.000000, 93.300093
1523.000000, 93.353009
1522.000000, 93.342671
1521.000000, 93.321878
1520.000000, 93.363853
1519.000000, 93.335419
1518.000000, 93.334393
1517.000000, 93.338076
1516.000000, 93.333717
1515.000000, 93.274626
1514.000000, 93.317006
1513.000000, 93.288850
1512.000000, 93.336251
1511.000000, 93.305165
1510.000000, 93.266970
1509.000000, 93.280531
1508.000000, 93.264458
1507.000000, 93.268663
1506.000000, 93.283913
1505.000000, 93.276566
1504.000000, 93.343439
1503.000000, 93.311493
1502.000000, 93.231213
1501.000000, 93.297602
1500.000000, 93.219396
1499.000000, 93.239298
1498.000000, 93.256350
1497.000000, 93.238719
1496.000000, 93.243058
1495.000000, 93.235489
1494.000000, 93.220542
1493.000000, 93.196126
1492.000000, 93.204006
1491.000000, 93.197502
1490.000000, 93.157257
1489.000000, 93.147793
1488.000000, 93.186970
1487.000000, 93.202338
1486.000000, 93.184750
1485.000000, 93.177306
1484.000000, 93.179603
1483.000000, 93.137989
1482.000000, 93.136982
1481.000000, 93.159025
1480.000000, 93.149375
1479.000000, 93.112805
1478.000000, 93.127434
1477.000000, 93.128579
1476.000000, 93.119829
1475.000000, 93.131013
1474.000000, 93.110341
1473.000000, 93.107716
1472.000000, 93.078803
1471.000000, 93.079738
1470.000000, 93.062010
1469.000000, 93.043120
1468.000000, 93.055981
1467.000000, 93.064198
1466.000000, 93.055573
1465.000000, 93.022492
1464.000000, 93.009843
1463.000000, 93.007056
1462.000000, 92.995964
1461.000000, 92.992360
1460.000000, 92.966672
1459.000000, 92.951063
1458.000000, 92.926715
1457.000000, 92.934597
1456.000000, 92.980168
1455.000000, 92.967792
1454.000000, 92.931276
1453.000000, 92.891811
1452.000000, 92.870169
1451.000000, 92.869043
1450.000000, 92.894315
1449.000000, 92.904523
1448.000000, 92.852488
1447.000000, 92.840299
1446.000000, 92.848736
1445.000000, 92.853175
1444.000000, 92.847943
1443.000000, 92.815881
1442.000000, 92.780075
1441.000000, 92.769854
1440.000000, 92.752744
1439.000000, 92.779470
1438.000000, 92.798136
1437.000000, 92.776425
1436.000000, 92.726340
1435.000000, 92.687365
1434.000000, 92.688081
1433.000000, 92.715720
1432.000000, 92.711194
1431.000000, 92.664698
1430.000000, 92.657481
1429.000000, 92.667291
1428.000000, 92.648183
1427.000000, 92.619475
1426.000000, 92.607524
1425.000000, 92.569945
1424.000000, 92.529847
1423.000000, 92.529376
1422.000000, 92.527768
1421.000000, 92.508895
1420.000000, 92.489768
1419.000000, 92.462303
1418.000000, 92.424822
1417.000000, 92.387362
1416.000000, 92.382625
1415.000000, 92.392702
1414.000000, 92.372679
1413.000000, 92.326088
1412.000000, 92.275668
1411.000000, 92.274673
1410.000000, 92.257810
1409.000000, 92.216056
1408.000000, 92.198938
1407.000000, 92.181498
1406.000000, 92.134036
1405.000000, 92.080922
1404.000000, 92.022030
1403.000000, 92.037930
1402.000000, 91.992678
1401.000000, 91.953354
1400.000000, 91.900222
1399.000000, 91.819329
1398.000000, 91.776181
1397.000000, 91.757748
1396.000000, 91.656811
1395.000000, 91.564888
1394.000000, 91.476860
1393.000000, 91.443658
1392.000000, 91.344159
1391.000000, 91.301660
1390.000000, 91.273007
1389.000000, 91.188486
1388.000000, 91.102143
1387.000000, 91.050504
1386.000000, 91.012250
1385.000000, 90.988237
1384.000000, 90.929164
1383.000000, 90.915977
1382.000000, 90.938802
1381.000000, 90.957744
1380.000000, 91.013894
1379.000000, 91.067148
1378.000000, 91.188664
1377.000000, 91.254923
1376.000000, 91.331671
1375.000000, 91.414951
1374.000000, 91.538136
1373.000000, 91.602457
1372.000000, 91.684390
1371.000000, 91.762684
1370.000000, 91.804642
1369.000000, 91.882628
1368.000000, 91.878253
1367.000000, 91.951894
1366.000000, 92.039810
1365.000000, 91.980826
1364.000000, 92.002903
1363.000000, 92.061861
1362.000000, 92.049548
1361.000000, 92.063820
1360.000000, 92.086635
1359.000000, 92.075860
1358.000000, 92.013138
1357.000000, 92.056146
1356.000000, 92.107203
1355.000000, 92.110019
1354.000000, 92.004877
1353.000000, 92.056895
1352.000000, 92.078433
1351.000000, 92.061420
1350.000000, 92.030044
1349.000000, 92.024858
1348.000000, 91.991225
1347.000000, 92.003597
1346.000000, 92.031299
1345.000000, 91.975090
1344.000000, 91.960984
1343.000000, 92.009177
1342.000000, 91.983169
1341.000000, 91.975031
1340.000000, 92.045934
1339.000000, 92.037606
1338.000000, 91.959093
1337.000000, 91.989315
1336.000000, 92.008620
1335.000000, 91.973084
1334.000000, 91.925405
1333.000000, 91.995950
1332.000000, 91.944059
1331.000000, 91.888017
1330.000000, 91.966613
1329.000000, 91.954859
1328.000000, 91.957447
1327.000000, 91.951825
1326.000000, 91.981898
1325.000000, 91.882060
1324.000000, 91.947676
1323.000000, 91.941935
1322.000000, 91.937375
1321.000000, 91.872743
1320.000000, 91.902050
1319.000000, 91.885196
1318.000000, 91.883136
1317.000000, 91.888704
1316.000000, 91.898488
1315.000000, 91.873742
1314.000000, 91.873375
1313.000000, 91.883543
1312.000000, 91.868310
1311.000000, 91.863577
1310.000000, 91.892609
1309.000000, 91.873839
1308.000000, 91.799850
1307.000000, 91.826629
1306.000000, 91.886632
1305.000000, 91.834648
1304.000000, 91.826584
1303.000000, 91.797676
1302.000000, 91.786763
1301.000000, 91.791938
1300.000000, 91.752765
1299.000000, 91.807092
1298.000000, 91.808249
1297.000000, 91.761070
1296.000000, 91.791945
1295.000000, 91.820794
1294.000000, 91.771195
1293.000000, 91.705911
1292.000000, 91.845114
1291.000000, 91.747947
1290.000000, 91.780342
1289.000000, 91.736385
1288.000000, 91.755179
1287.000000, 91.767437
1286.000000, 91.771454
1285.000000, 91.752979
1284.000000, 91.749956
1283.000000, 91.732675
1282.000000, 91.790047
1281.000000, 91.724865
1280.000000, 91.775891
1279.000000, 91.749119
1278.000000, 91.693336
1277.000000, 91.731039
1276.000000, 91.709879
1275.000000, 91.701941
1274.000000, 91.717646
1273.000000, 91.683854
1272.000000, 91.699259
1271.000000, 91.713527
1270.000000, 91.686630
1269.000000, 91.708259
1268.000000, 91.723949
1267.000000, 91.720286
1266.000000, 91.735113
1265.000000, 91.700441
1264.000000, 91.680087
1263.000000, 91.630556
1262.000000, 91.693276
1261.000000, 91.662282
1260.000000, 91.632408
1259.000000, 91.663027
1258.000000, 91.628369
1257.000000, 91.663477
1256.000000, 91.683275
1255.000000, 91.613113
1254.000000, 91.615494
1253.000000, 91.588087
1252.000000, 91.656384
1251.000000, 91.651880
1250.000000, 91.614079
1249.000000, 91.641437
1248.000000, 91.637100
1247.000000, 91.613994
1246.000000, 91.647671
1245.000000, 91.670871
1244.000000, 91.711884
1243.000000, 91.691691
1242.000000, 91.645587
1241.000000, 91.662126
1240.000000, 91.681178
1239.000000, 91.680258
1238.000000, 91.698647
1237.000000, 91.685232
1236.000000, 91.680949
1235.000000, 91.688705
1234.000000, 91.697229
1233.000000, 91.743806
1232.000000, 91.754826
1231.000000, 91.722542
1230.000000, 91.721852
1229.000000, 91.723676
1228.000000, 91.706377
1227.000000, 91.792984
1226.000000, 91.767399
1225.000000, 91.742859
1224.000000, 91.765372
1223.000000, 91.765411
1222.000000, 91.741773
1221.000000, 91.740795
1220.000000, 91.747101
1219.000000, 91.778894
1218.000000, 91.782706
1217.000000, 91.774096
1216.000000, 91.783952
1215.000000, 91.786393
1214.000000, 91.804636
1213.000000, 91.844467
1212.000000, 91.877063
1211.000000, 91.844464
1210.000000, 91.835120
1209.000000, 91.817233
1208.000000, 91.876014
1207.000000, 91.875130
1206.000000, 91.843388
1205.000000, 91.841962
1204.000000, 91.853771
1203.000000, 91.832021
1202.000000, 91.846351
1201.000000, 91.887460
1200.000000, 91.924313
1199.000000, 91.935182
1198.000000, 91.934170
1197.000000, 91.912029
1196.000000, 91.889102
1195.000000, 91.914789
1194.000000, 91.921405
1193.000000, 91.911894
1192.000000, 91.922320
1191.000000, 91.926481
1190.000000, 91.935694
1189.000000, 91.936093
1188.000000, 91.940889
1187.000000, 91.943812
1186.000000, 91.984869
1185.000000, 92.007954
1184.000000, 91.962033
1183.000000, 91.997195
1182.000000, 91.996276
1181.000000, 91.981177
1180.000000, 92.035341
1179.000000, 92.035211
1178.000000, 91.986769
1177.000000, 91.990503
1176.000000, 92.060709
1175.000000, 92.060255
1174.000000, 92.046291
1173.000000, 92.078506
1172.000000, 92.078184
1171.000000, 92.056975
1170.000000, 92.066637
1169.000000, 92.080768
1168.000000, 92.088512
1167.000000, 92.113849
1166.000000, 92.116463
1165.000000, 92.123848
1164.000000, 92.152890
1163.000000, 92.133197
1162.000000, 92.160239
1161.000000, 92.168362
1160.000000, 92.167982
1159.000000, 92.180434
1158.000000, 92.179219
1157.000000, 92.187137
1156.000000, 92.231929
1155.000000, 92.198695
1154.000000, 92.235189
1153.000000, 92.218058
1152.000000, 92.249316
1151.000000, 92.285204
1150.000000, 92.290695
1149.000000, 92.261248
1148.000000, 92.265086
1147.000000, 92.290581
1146.000000, 92.292666
1145.000000, 92.297211
1144.000000, 92.342325
1143.000000, 92.290946
1142.000000, 92.307419
1141.000000, 92.333671
1140.000000, 92.306844
1139.000000, 92.328890
1138.000000, 92.364408
1137.000000, 92.372140
1136.000000, 92.369337
1135.000000, 92.368815
1134.000000, 92.392751
1133.000000, 92.413732
1132.000000, 92.427481
1131.000000, 92.416566
1130.000000, 92.441578
1129.000000, 92.453083
1128.000000, 92.432637
1127.000000, 92.441902
1126.000000, 92.460312
1125.000000, 92.504193
1124.000000, 92.479949
1123.000000, 92.486364
1122.000000, 92.502656
1121.000000, 92.514289
1120.000000, 92.531200
1119.000000, 92.518573
1118.000000, 92.553680
1117.000000, 92.528748
1116.000000, 92.541554
1115.000000, 92.591676
1114.000000, 92.596698
1113.000000, 92.553716
1112.000000, 92.556967
1111.000000, 92.610423
1110.000000, 92.548913
1109.000000, 92.599525
1108.000000, 92.615969
1107.000000, 92.602790
1106.000000, 92.648229
1105.000000, 92.665536
1104.000000, 92.627292
1103.000000, 92.644990
1102.000000, 92.652165
1101.000000, 92.609348
1100.000000, 92.639355
1099.000000, 92.653405
1098.000000, 92.665086
1097.000000, 92.697574
1096.000000, 92.697694
1095.000000, 92.656979
1094.000000, 92.670356
1093.000000, 92.681990
1092.000000, 92.704023
1091.000000, 92.694339
1090.000000, 92.733715
1089.000000, 92.721559
1088.000000, 92.693272
1087.000000, 92.700899
1086.000000, 92.718491
1085.000000, 92.746637
1084.000000, 92.736331
1083.000000, 92.734764
1082.000000, 92.750320
1081.000000, 92.795697
1080.000000, 92.771606
1079.000000, 92.742046
1078.000000, 92.722316
1077.000000, 92.796439
1076.000000, 92.813666
1075.000000, 92.817490
1074.000000, 92.784416
1073.000000, 92.750372
1072.000000, 92.797177
1071.000000, 92.813165
1070.000000, 92.824676
1069.000000, 92.765100
1068.000000, 92.853714
1067.000000, 92.801991
1066.000000, 92.777757
1065.000000, 92.829307
1064.000000, 92.796856
1063.000000, 92.817546
1062.000000, 92.790577
1061.000000, 92.806095
1060.000000, 92.779498
1059.000000, 92.826426
1058.000000, 92.819100
1057.000000, 92.775178
1056.000000, 92.788178
1055.000000, 92.785538
1054.000000, 92.884729
1053.000000, 92.851508
1052.000000, 92.778219
1051.000000, 92.753058
1050.000000, 92.830633
1049.000000, 92.842398
1048.000000, 92.783958
1047.000000, 92.849607
1046.000000, 92.815852
1045.000000, 92.805821
1044.000000, 92.750089
1043.000000, 92.807694
1042.000000, 92.772299
1041.000000, 92.750434
1040.000000, 92.767299
1039.000000, 92.781398
1038.000000, 92.792417
1037.000000, 92.760710
1036.000000, 92.771098
1035.000000, 92.739085
1034.000000, 92.733849
1033.000000, 92.770314
1032.000000, 92.745435
1031.000000, 92.776498
1030.000000, 92.713185
1029.000000, 92.725792
1028.000000, 92.694685
1027.000000, 92.707944
1026.000000, 92.743163
1025.000000, 92.745649
1024.000000, 92.689732
1023.000000, 92.677891
1022.000000, 92.740944
1021.000000, 92.649675
1020.000000, 92.655158
1019.000000, 92.723273
1018.000000, 92.659114
1017.000000, 92.622457
1016.000000, 92.610535
1015.000000, 92.675567
1014.000000, 92.671943
1013.000000, 92.630840
1012.000000, 92.624043
1011.000000, 92.573311
1010.000000, 92.592959
1009.000000, 92.586063
1008.000000, 92.569453
1007.000000, 92.542576
1006.000000, 92.536580
1005.000000, 92.538436
1004.000000, 92.519526
1003.000000, 92.523065
1002.000000, 92.530821
1001.000000, 92.486143
1000.000000, 92.518749
999.000000, 92.477375
998.000000, 92.504514
997.000000, 92.481694
996.000000, 92.464582
995.000000, 92.427557
994.000000, 92.429715
993.000000, 92.407651
992.000000, 92.408995
991.000000, 92.390627
990.000000, 92.410487
989.000000, 92.382336
988.000000, 92.381086
987.000000, 92.342327
986.000000, 92.337873
985.000000, 92.300110
984.000000, 92.339980
983.000000, 92.336925
982.000000, 92.286853
981.000000, 92.287254
980.000000, 92.266001
979.000000, 92.259846
978.000000, 92.243961
977.000000, 92.245574
976.000000, 92.223113
975.000000, 92.198486
974.000000, 92.191958
973.000000, 92.167327
972.000000, 92.159420
971.000000, 92.151623
970.000000, 92.136970
969.000000, 92.108957
968.000000, 92.123093
967.000000, 92.136117
966.000000, 92.122893
965.000000, 92.082909
964.000000, 92.075263
963.000000, 92.060232
962.000000, 92.050696
961.000000, 92.039198
960.000000, 92.023324
959.000000, 92.006802
958.000000, 92.004377
957.000000, 92.027681
956.000000, 92.044196
955.000000, 91.972617
954.000000, 91.919764
953.000000, 91.918278
952.000000, 91.976684
951.000000, 91.973725
950.000000, 91.908943
949.000000, 91.896714
948.000000, 91.896968
947.000000, 91.878633
946.000000, 91.879269
945.000000, 91.844691
944.000000, 91.823504
943.000000, 91.822057
942.000000, 91.827072
941.000000, 91.835368
940.000000, 91.834287
939.000000, 91.779041
938.000000, 91.764157
937.000000, 91.757027
936.000000, 91.750882
935.000000, 91.749055
934.000000, 91.753078
933.000000, 91.726561
932.000000, 91.695653
931.000000, 91.696319
930.000000, 91.691114
929.000000, 91.693142
928.000000, 91.674025
927.000000, 91.630931
926.000000, 91.694990
925.000000, 91.712137
924.000000, 91.605874
923.000000, 91.614004
922.000000, 91.643337
921.000000, 91.629439
920.000000, 91.615722
919.000000, 91.618531
918.000000, 91.612661
917.000000, 91.599034
916.000000, 91.595227
915.000000, 91.616564
914.000000, 91.613050
913.000000, 91.586504
912.000000, 91.533254
911.000000, 91.538121
910.000000, 91.552743
909.000000, 91.559555
908.000000, 91.572794
907.000000, 91.554199
906.000000, 91.559026
905.000000, 91.560700
904.000000, 91.504432
903.000000, 91.502930
902.000000, 91.505122
901.000000, 91.518544
900.000000, 91.498657
