nm, %T
1800.000000, 93.003535
1799.000000, 93.046419
1798.000000, 93.086798
1797.000000, 93.085894
1796.000000, 93.007511
1795.000000, 93.002192
1794.000000, 93.064429
1793.000000, 93.107230
1792.000000, 93.103415
1791.000000, 93.060325
1790.000000, 93.097298
1789.000000, 93.096626
1788.000000, 93.167444
1787.000000, 93.178674
1786.000000, 93.147401
1785.000000, 93.113566
1784.000000, 93.178534
1783.000000, 93.134142
1782.000000, 93.149049
1781.000000, 93.122364
1780.000000, 93.165228
1779.000000, 93.121909
1778.000000, 93.143958
1777.000000, 93.170093
1776.000000, 93.184167
1775.000000, 93.162958
1774.000000, 93.146670
1773.000000, 93.171952
1772.000000, 93.108680
1771.000000, 93.129331
1770.000000, 93.136370
1769.000000, 93.200352
1768.000000, 93.147650
1767.000000, 93.174339
1766.000000, 93.163711
1765.000000, 93.132771
1764.000000, 93.188302
1763.000000, 93.190935
1762.000000, 93.121334
1761.000000, 93.200031
1760.000000, 93.136088
1759.000000, 93.175257
1758.000000, 93.218004
1757.000000, 93.188496
1756.000000, 93.187862
1755.000000, 93.179959
1754.000000, 93.196660
1753.000000, 93.229022
1752.000000, 93.178211
1751.000000, 93.213513
1750.000000, 93.236889
1749.000000, 93.243178
1748.000000, 93.230927
1747.000000, 93.243629
1746.000000, 93.222674
1745.000000, 93.204174
1744.000000, 93.239370
1743.000000, 93.212561
1742.000000, 93.256916
1741.000000, 93.271931
1740.000000, 93.231267
1739.000000, 93.273863
1738.000000, 93.302321
1737.000000, 93.315170
1736.000000, 93.297099
1735.000000, 93.256768
1734.000000, 93.244165
1733.000000, 93.263255
1732.000000, 93.312883
1731.000000, 93.327941
1730.000000, 93.302483
1729.000000, 93.317689
1728.000000, 93.287276
1727.000000, 93.321575
1726.000000, 93.345142
1725.000000, 93.272780
1724.000000, 93.239925
1723.000000, 93.287822
1722.000000, 93.337404
1721.000000, 93.299944
1720.000000, 93.331713
1719.000000, 93.290405
1718.000000, 93.327092
1717.000000, 93.342465
1716.000000, 93.322886
1715.000000, 93.304099
1714.000000, 93.303097
1713.000000, 93.297244
1712.000000, 93.312131
1711.000000, 93.320549
1710.000000, 93.346280
1709.000000, 93.333625
1708.000000, 93.323965
1707.000000, 93.288967
1706.000000, 93.301205
1705.000000, 93.330449
1704.000000, 93.332088
1703.000000, 93.312794
1702.000000, 93.316867
1701.000000, 93.316576
1700.000000, 93.335110
1699.000000, 93.345180
1698.000000, 93.353444
1697.000000, 93.351872
1696.000000, 93.351860
1695.000000, 93.344464
1694.000000, 93.343056
1693.000000, 93.352522
1692.000000, 93.338859
1691.000000, 93.372033
1690.000000, 93.361233
1689.000000, 93.300343
1688.000000, 93.315170
1687.000000, 93.330771
1686.000000, 93.325887
1685.000000, 93.349969
1684.000000, 93.333885
1683.000000, 93.305483
1682.000000, 93.320345
1681.000000, 93.344883
1680.000000, 93.362460
1679.000000, 93.319778
1678.000000, 93.276764
1677.000000, 93.284746
1676.000000, 93.343928
1675.000000, 93.347930
1674.000000, 93.362291
1673.000000, 93.404235
1672.000000, 93.370307
1671.000000, 93.359792
1670.000000, 93.387675
1669.000000, 93.365849
1668.000000, 93.327270
1667.000000, 93.322721
1666.000000, 93.340551
1665.000000, 93.314576
1664.000000, 93.320024
1663.000000, 93.343358
1662.000000, 93.318541
1661.000000, 93.299257
1660.000000, 93.294318
1659.000000, 93.303447
1658.000000, 93.335431
1657.000000, 93.327749
1656.000000, 93.330255
1655.000000, 93.320410
1654.000000, 93.290784
1653.000000, 93.305608
1652.000000, 93.311351
1651.000000, 93.327762
1650.000000, 93.296882
1649.000000, 93.295961
1648.000000, 93.300488
1647.000000, 93.294592
1646.000000, 93.308413
1645.000000, 93.260359
1644.000000, 93.290944
1643.000000, 93.272342
1642.000000, 93.270176
1641.000000, 93.294738
1640.000000, 93.272679
1639.000000, 93.259328
1638.000000, 93.313805
1637.000000, 93.260823
1636.000000, 93.248096
1635.000000, 93.310727
1634.000000, 93.322774
1633.000000, 93.306775
1632.000000, 93.299418
1631.000000, 93.294010
1630.000000, 93.254288
1629.000000, 93.243832
1628.000000, 93.295939
1627.000000, 93.294246
1626.000000, 93.258431
1625.000000, 93.243296
1624.000000, 93.286984
1623.000000, 93.284820
1622.000000, 93.279138
1621.000000, 93.249492
1620.000000, 93.187790
1619.000000, 93.235804
1618.000000, 93.231596
1617.000000, 93.225242
1616.000000, 93.219696
1615.000000, 93.204025
1614.000000, 93.198745
1613.000000, 93.180245
1612.000000, 93.238745
1611.000000, 93.254828
1610.000000, 93.213470
1609.000000, 93.232606
1608.000000, 93.179359
1607.000000, 93.151243
1606.000000, 93.170553
1605.000000, 93.208323
1604.000000, 93.146002
1603.000000, 93.146983
1602.000000, 93.180336
1601.000000, 93.173138
1600.000000, 93.149928
1599.000000, 93.205741
1598.000000, 93.171963
1597.000000, 93.158786
1596.000000, 93.166000
1595.000000, 93.110721
1594.000000, 93.122031
1593.000000, 93.183746
1592.000000, 93.092730
1591.000000, 93.089968
1590.000000, 93.088750
1589.000000, 93.085171
1588.000000, 93.106853
1587.000000, 93.092089
1586.000000, 93.122339
1585.000000, 93.112208
1584.000000, 93.053029
1583.000000, 93.074577
1582.000000, 93.078427
1581.000000, 93.071812
1580.000000, 93.060456
1579.000000, 93.030770
1578.000000, 93.043890
1577.000000, 93.004613
1576.000000, 93.039411
1575.000000, 93.000372
1574.000000, 93.023655
1573.000000, 93.031077
1572.000000, 92.974158
1571.000000, 93.016892
1570.000000, 92.973272
1569.000000, 92.980843
1568.000000, 92.939821
1567.000000, 93.000760
1566.000000, 92.975701
1565.000000, 92.933958
1564.000000, 92.951657
1563.000000, 92.904325
1562.000000, 92.986391
1561.000000, 92.909651
1560.000000, 92.898468
1559.000000, 92.955219
1558.000000, 92.924889
1557.000000, 92.884116
1556.000000, 92.901654
1555.000000, 92.851886
1554.000000, 92.880299
1553.000000, 92.889672
1552.000000, 92.809017
1551.000000, 92.858738
1550.000000, 92.848235
1549.000000, 92.856126
1548.000000, 92.825473
1547.000000, 92.825843
1546.000000, 92.861718
1545.000000, 92.805894
1544.000000, 92.830545
1543.000000, 92.784078
1542.000000, 92.780765
1541.000000, 92.802812
1540.000000, 92.813540
1539.000000, 92.773578
1538.000000, 92.753506
1537.000000, 92.736816
1536.000000, 92.727494
1535.000000, 92.723012
1534.000000, 92.680942
1533.000000, 92.754482
1532.000000, 92.702991
1531.000000, 92.680764
1530.000000, 92.665079
1529.000000, 92.628842
1528.000000, 92.701189
1527.000000, 92.673670
1526.000000, 92.764537
1525.000000, 92.674964
1524.000000, 92.615856
1523.000000, 92.642266
1522.000000, 92.649431
1521.000000, 92.683072
1520.000000, 92.638559
1519.000000, 92.668094
1518.000000, 92.605522
1517.000000, 92.613672
1516.000000, 92.608883
1515.000000, 92.603423
1514.000000, 92.600396
1513.000000, 92.610981
1512.000000, 92.571867
1511.000000, 92.619253
1510.000000, 92.566692
1509.000000, 92.556328
1508.000000, 92.557418
1507.000000, 92.514446
1506.000000, 92.546215
1505.000000, 92.512358
1504.000000, 92.560561
1503.000000, 92.522058
1502.000000, 92.491579
1501.000000, 92.529224
1500.000000, 92.467933
1499.000000, 92.520290
1498.000000, 92.498219
1497.000000, 92.440718
1496.000000, 92.443577
1495.000000, 92.464914
1494.000000, 92.403698
1493.000000, 92.448913
1492.000000, 92.433305
1491.000000, 92.415110
1490.000000, 92.404424
1489.000000, 92.395544
1488.000000, 92.397815
1487.000000, 92.407068
1486.000000, 92.397895
1485.000000, 92.341770
1484.000000, 92.365947
1483.000000, 92.340862
1482.000000, 92.323847
1481.000000, 92.340057
1480.000000, 92.330579
1479.000000, 92.331533
1478.000000, 92.325053
1477.000000, 92.338290
1476.000000, 92.288518
1475.000000, 92.259051
1474.000000, 92.280233
1473.000000, 92.302362
1472.000000, 92.281751
1471.000000, 92.239475
1470.000000, 92.251295
1469.000000, 92.251221
1468.000000, 92.290421
1467.000000, 92.258236
1466.000000, 92.212511
1465.000000, 92.221213
1464.000000, 92.210504
1463.000000, 92.174361
1462.000000, 92.150885
1461.000000, 92.136111
1460.000000, 92.137812
1459.000000, 92.158257
1458.000000, 92.145990
1457.000000, 92.128224
1456.000000, 92.144682
1455.000000, 92.128134
1454.000000, 92.104825
1453.000000, 92.087856
1452.000000, 92.095685
1451.000000, 92.113324
1450.000000, 92.066794
1449.000000, 92.067182
1448.000000, 92.081092
1447.000000, 92.051995
1446.000000, 92.032587
1445.000000, 92.055965
1444.000000, 92.043083
1443.000000, 92.029120
1442.000000, 92.032585
1441.000000, 92.016272
1440.000000, 91.994724
1439.000000, 92.004965
1438.000000, 92.016947
1437.000000, 91.985755
1436.000000, 91.933952
1435.000000, 91.925061
1434.000000, 91.921917
1433.000000, 91.933393
1432.000000, 91.930191
1431.000000, 91.896558
1430.000000, 91.903663
1429.000000, 91.888096
1428.000000, 91.872488
1427.000000, 91.868335
1426.000000, 91.851761
1425.000000, 91.835177
1424.000000, 91.800373
1423.000000, 91.798512
1422.000000, 91.805488
1421.000000, 91.797353
1420.000000, 91.787576
1419.000000, 91.764968
1418.000000, 91.713256
1417.000000, 91.671758
1416.000000, 91.689349
1415.000000, 91.743721
1414.000000, 91.746310
1413.000000, 91.700149
1412.000000, 91.652803
1411.000000, 91.619555
1410.000000, 91.602430
1409.000000, 91.594060
1408.000000, 91.576114
1407.000000, 91.557048
1406.000000, 91.508532
1405.000000, 91.445696
1404.000000, 91.406434
1403.000000, 91.411367
1402.000000, 91.359986
1401.000000, 91.318018
1400.000000, 91.261252
1399.000000, 91.209262
1398.000000, 91.163788
1397.000000, 91.145365
1396.000000, 91.083547
1395.000000, 91.050618
1394.000000, 90.986449
1393.000000, 90.985590
1392.000000, 90.907076
1391.000000, 90.852222
1390.000000, 90.870045
1389.000000, 90.767613
1388.000000, 90.703438
1387.000000, 90.690067
1386.000000, 90.671669
1385.000000, 90.673128
1384.000000, 90.624851
1383.000000, 90.645132
1382.000000, 90.645766
1381.000000, 90.658943
1380.000000, 90.716218
1379.000000, 90.772472
1378.000000, 90.884778
1377.000000, 90.948903
1376.000000, 90.959816
1375.000000, 91.044972
1374.000000, 91.147853
1373.000000, 91.214476
1372.000000, 91.290612
1371.000000, 91.357584
1370.000000, 91.399145
1369.000000, 91.468453
1368.000000, 91.429748
1367.000000, 91.498534
1366.000000, 91.568021
1365.000000, 91.532535
1364.000000, 91.523302
1363.000000, 91.572721
1362.000000, 91.609382
1361.000000, 91.592563
1360.000000, 91.641252
1359.000000, 91.611852
1358.000000, 91.609701
1357.000000, 91.640332
1356.000000, 91.683123
1355.000000, 91.722827
1354.000000, 91.637438
1353.000000, 91.634088
1352.000000, 91.691650
1351.000000, 91.675504
1350.000000, 91.657020
1349.000000, 91.666812
1348.000000, 91.650274
1347.000000, 91.674882
1346.000000, 91.687163
1345.000000, 91.686900
1344.000000, 91.662033
1343.000000, 91.711950
1342.000000, 91.640147
1341.000000, 91.654261
1340.000000, 91.737786
1339.000000, 91.714724
1338.000000, 91.680013
1337.000000, 91.741748
1336.000000, 91.729702
1335.000000, 91.721040
1334.000000, 91.686061
1333.000000, 91.701265
1332.000000, 91.715915
1331.000000, 91.684187
1330.000000, 91.717426
1329.000000, 91.734054
1328.000000, 91.734318
1327.000000, 91.723880
1326.000000, 91.755435
1325.000000, 91.698270
1324.000000, 91.751112
1323.000000, 91.768051
1322.000000, 91.778634
1321.000000, 91.769737
1320.000000, 91.780851
1319.000000, 91.706920
1318.000000, 91.719983
1317.000000, 91.767549
1316.000000, 91.811528
1315.000000, 91.748074
1314.000000, 91.782368
1313.000000, 91.724078
1312.000000, 91.793626
1311.000000, 91.836580
1310.000000, 91.810922
1309.000000, 91.856844
1308.000000, 91.747728
1307.000000, 91.797499
1306.000000, 91.784803
1305.000000, 91.830473
1304.000000, 91.856579
1303.000000, 91.814856
1302.000000, 91.823260
1301.000000, 91.813969
1300.000000, 91.802339
1299.000000, 91.871751
1298.000000, 91.828534
1297.000000, 91.822415
1296.000000, 91.770600
1295.000000, 91.868265
1294.000000, 91.822813
1293.000000, 91.828420
1292.000000, 91.907739
1291.000000, 91.910007
1290.000000, 91.823904
1289.000000, 91.842322
1288.000000, 91.892957
1287.000000, 91.859821
1286.000000, 91.868286
1285.000000, 91.906669
1284.000000, 91.901580
1283.000000, 91.908286
1282.000000, 91.933678
1281.000000, 91.957624
1280.000000, 91.968536
1279.000000, 91.937419
1278.000000, 91.907463
1277.000000, 91.928083
1276.000000, 91.947286
1275.000000, 91.945152
1274.000000, 91.937562
1273.000000, 91.966899
1272.000000, 91.985919
1271.000000, 91.984560
1270.000000, 91.979390
1269.000000, 91.970560
1268.000000, 91.991497
1267.000000, 91.995239
1266.000000, 92.041277
1265.000000, 92.020832
1264.000000, 91.976597
1263.000000, 91.984058
1262.000000, 92.043500
1261.000000, 92.049571
1260.000000, 92.018138
1259.000000, 92.009182
1258.000000, 92.022858
1257.000000, 92.043582
1256.000000, 92.069478
1255.000000, 92.039996
1254.000000, 92.024652
1253.000000, 92.018172
1252.000000, 92.043506
1251.000000, 92.050835
1250.000000, 92.058730
1249.000000, 92.103219
1248.000000, 92.099876
1247.000000, 92.099571
1246.000000, 92.127398
1245.000000, 92.133466
1244.000000, 92.154722
1243.000000, 92.123976
1242.000000, 92.124005
1241.000000, 92.113146
1240.000000, 92.110763
1239.000000, 92.154657
1238.000000, 92.177073
1237.000000, 92.190322
1236.000000, 92.210985
1235.000000, 92.192273
1234.000000, 92.240821
1233.000000, 92.272681
1232.000000, 92.270234
1231.000000, 92.208131
1230.000000, 92.234183
1229.000000, 92.237725
1228.000000, 92.234894
1227.000000, 92.293224
1226.000000, 92.299579
1225.000000, 92.287710
1224.000000, 92.294550
1223.000000, 92.318795
1222.000000, 92.306303
1221.000000, 92.315406
1220.000000, 92.329915
1219.000000, 92.304720
1218.000000, 92.307031
1217.000000, 92.377779
1216.000000, 92.385588
1215.000000, 92.358088
1214.000000, 92.408605
1213.000000, 92.396148
1212.000000, 92.424845
1211.000000, 92.403661
1210.000000, 92.433413
1209.000000, 92.432341
1208.000000, 92.430282
1207.000000, 92.454974
1206.000000, 92.414219
1205.000000, 92.408313
1204.000000, 92.448260
1203.000000, 92.433668
1202.000000, 92.451452
1201.000000, 92.473849
1200.000000, 92.515365
1199.000000, 92.518954
1198.000000, 92.503980
1197.000000, 92.529155
1196.000000, 92.556310
1195.000000, 92.538858
1194.000000, 92.512157
1193.000000, 92.515235
1192.000000, 92.525839
1191.000000, 92.548626
1190.000000, 92.553911
1189.000000, 92.513092
1188.000000, 92.478349
1187.000000, 92.521690
1186.000000, 92.554791
1185.000000, 92.526736
1184.000000, 92.502841
1183.000000, 92.543436
1182.000000, 92.552928
1181.000000, 92.563137
1180.000000, 92.618581
1179.000000, 92.596476
1178.000000, 92.543999
1177.000000, 92.557832
1176.000000, 92.590400
1175.000000, 92.634525
1174.000000, 92.644572
1173.000000, 92.631902
1172.000000, 92.643320
1171.000000, 92.613201
1170.000000, 92.582526
1169.000000, 92.600335
1168.000000, 92.635197
1167.000000, 92.637791
1166.000000, 92.661498
1165.000000, 92.663887
1164.000000, 92.661550
1163.000000, 92.643031
1162.000000, 92.664700
1161.000000, 92.660543
1160.000000, 92.657237
1159.000000, 92.678232
1158.000000, 92.672684
1157.000000, 92.657505
1156.000000, 92.687682
1155.000000, 92.667942
1154.000000, 92.660020
1153.000000, 92.642798
1152.000000, 92.694110
1151.000000, 92.722389
1150.000000, 92.703236
1149.000000, 92.694570
1148.000000, 92.696424
1147.000000, 92.714649
1146.000000, 92.714540
1145.000000, 92.758382
1144.000000, 92.742851
1143.000000, 92.691163
1142.000000, 92.713831
1141.000000, 92.722597
1140.000000, 92.692566
1139.000000, 92.696673
1138.000000, 92.706073
1137.000000, 92.708996
1136.000000, 92.661696
1135.000000, 92.665037
1134.000000, 92.668185
1133.000000, 92.708979
1132.000000, 92.714597
1131.000000, 92.683569
1130.000000, 92.710652
1129.000000, 92.723149
1128.000000, 92.695311
1127.000000, 92.662243
1126.000000, 92.695634
1125.000000, 92.721487
1124.000000, 92.683664
1123.000000, 92.680069
1122.000000, 92.673161
1121.000000, 92.702871
1120.000000, 92.687942
1119.000000, 92.662724
1118.000000, 92.675199
1117.000000, 92.662451
1116.000000, 92.684855
1115.000000, 92.725608
1114.000000, 92.669902
1113.000000, 92.628522
1112.000000, 92.656318
1111.000000, 92.697362
1110.000000, 92.662733
1109.000000, 92.654726
1108.000000, 92.710528
1107.000000, 92.689123
1106.000000, 92.725602
1105.000000, 92.693034
1104.000000, 92.653826
1103.000000, 92.637929
1102.000000, 92.663235
1101.000000, 92.574153
1100.000000, 92.565932
1099.000000, 92.628610
1098.000000, 92.635620
1097.000000, 92.587539
1096.000000, 92.624359
1095.000000, 92.607596
1094.000000, 92.631566
1093.000000, 92.593669
1092.000000, 92.577481
1091.000000, 92.547165
1090.000000, 92.572460
1089.000000, 92.574424
1088.000000, 92.513369
1087.000000, 92.524175
1086.000000, 92.566004
1085.000000, 92.550765
1084.000000, 92.552304
1083.000000, 92.515145
1082.000000, 92.535628
1081.000000, 92.541189
1080.000000, 92.538720
1079.000000, 92.536681
1078.000000, 92.464400
1077.000000, 92.535428
1076.000000, 92.416373
1075.000000, 92.475773
1074.000000, 92.452368
1073.000000, 92.468217
1072.000000, 92.499829
1071.000000, 92.444242
1070.000000, 92.434482
1069.000000, 92.400168
1068.000000, 92.419867
1067.000000, 92.446752
1066.000000, 92.427265
1065.000000, 92.445016
1064.000000, 92.392289
1063.000000, 92.372659
1062.000000, 92.373251
1061.000000, 92.366798
1060.000000, 92.389438
1059.000000, 92.372722
1058.000000, 92.295674
1057.000000, 92.308303
1056.000000, 92.334281
1055.000000, 92.294941
1054.000000, 92.317525
1053.000000, 92.345577
1052.000000, 92.243612
1051.000000, 92.226073
1050.000000, 92.282901
1049.000000, 92.281603
1048.000000, 92.246831
1047.000000, 92.274984
1046.000000, 92.244206
1045.000000, 92.199977
1044.000000, 92.183812
1043.000000, 92.235703
1042.000000, 92.229125
1041.000000, 92.149398
1040.000000, 92.175851
1039.000000, 92.137339
1038.000000, 92.162152
1037.000000, 92.154376
1036.000000, 92.162051
1035.000000, 92.121954
1034.000000, 92.088427
1033.000000, 92.114446
1032.000000, 92.080980
1031.000000, 92.107003
1030.000000, 92.079839
1029.000000, 92.092055
1028.000000, 92.031061
1027.000000, 92.092314
1026.000000, 92.066848
1025.000000, 92.052438
1024.000000, 92.006089
1023.000000, 92.005570
1022.000000, 92.049243
1021.000000, 91.995513
1020.000000, 92.009115
1019.000000, 92.034036
1018.000000, 91.980106
1017.000000, 91.966309
1016.000000, 91.964108
1015.000000, 91.997866
1014.000000, 91.997870
1013.000000, 91.957975
1012.000000, 91.958558
1011.000000, 91.911660
1010.000000, 91.925229
1009.000000, 91.911263
1008.000000, 91.881317
1007.000000, 91.874118
1006.000000, 91.851703
1005.000000, 91.870672
1004.000000, 91.858974
1003.000000, 91.861922
1002.000000, 91.873000
1001.000000, 91.845095
1000.000000, 91.837908
999.000000, 91.815072
998.000000, 91.837528
997.000000, 91.811740
996.000000, 91.817394
995.000000, 91.793789
994.000000, 91.784764
993.000000, 91.790673
992.000000, 91.788598
991.000000, 91.750464
990.000000, 91.760580
989.000000, 91.788815
988.000000, 91.822992
987.000000, 91.776761
986.000000, 91.769108
985.000000, 91.746399
984.000000, 91.734174
983.000000, 91.773635
982.000000, 91.766826
981.000000, 91.776918
980.000000, 91.730748
979.000000, 91.713842
978.000000, 91.731937
977.000000, 91.737717
976.000000, 91.719672
975.000000, 91.705962
974.000000, 91.721331
973.000000, 91.727350
972.000000, 91.746598
971.000000, 91.709984
970.000000, 91.694504
969.000000, 91.683562
968.000000, 91.702369
967.000000, 91.733168
966.000000, 91.671140
965.000000, 91.641931
964.000000, 91.650067
963.000000, 91.685910
962.000000, 91.702435
961.000000, 91.678576
960.000000, 91.665229
959.000000, 91.682396
958.000000, 91.688345
957.000000, 91.659885
956.000000, 91.699674
955.000000, 91.733623
954.000000, 91.675565
953.000000, 91.638654
952.000000, 91.686412
951.000000, 91.724827
950.000000, 91.693112
949.000000, 91.666440
948.000000, 91.679427
947.000000, 91.690876
946.000000, 91.684740
945.000000, 91.670427
944.000000, 91.671418
943.000000, 91.647756
942.000000, 91.642974
941.000000, 91.695719
940.000000, 91.729493
939.000000, 91.689466
938.000000, 91.649678
937.000000, 91.663476
936.000000, 91.675811
935.000000, 91.690376
934.000000, 91.679024
933.000000, 91.640224
932.000000, 91.683748
931.000000, 91.714745
930.000000, 91.703804
929.000000, 91.700643
928.000000, 91.703994
927.000000, 91.705596
926.000000, 91.728480
925.000000, 91.708222
924.000000, 91.692331
923.000000, 91.697193
922.000000, 91.706584
921.000000, 91.710776
920.000000, 91.709113
919.000000, 91.760725
918.000000, 91.751854
917.000000, 91.729577
916.000000, 91.711523
915.000000, 91.734449
914.000000, 91.751041
913.000000, 91.757993
912.000000, 91.765661
911.000000, 91.758109
910.000000, 91.717518
909.000000, 91.755791
908.000000, 91.761108
907.000000, 91.735725
906.000000, 91.798803
905.000000, 91.820196
904.000000, 91.766201
903.000000, 91.740331
902.000000, 91.744737
901.000000, 91.768144
900.000000, 91.758510
