nm, %T
1800.000000, 45663.270331
1799.000000, 46849.362482
1798.000000, 42448.251111
1797.000000, 44776.814593
1796.000000, 37832.147931
1795.000000, 42500.920102
1794.000000, 39810.081957
1793.000000, 45785.279214
1792.000000, 34949.550749
1791.000000, 32768.275256
1790.000000, 45103.593866
1789.000000, 40103.367819
1788.000000, 34239.789353
1787.000000, 38404.022627
1786.000000, 43817.532408
1785.000000, 37967.146107
1784.000000, 33616.617478
1783.000000, 34488.616094
1782.000000, 36436.862859
1781.000000, 41845.594106
1780.000000, 41481.659610
1779.000000, 35280.830866
1778.000000, 33685.932461
1777.000000, 36363.018405
1776.000000, 39609.513162
1775.000000, 34580.634921
1774.000000, 42666.655753
1773.000000, 33853.109965
1772.000000, 44715.230570
1771.000000, 52819.382689
1770.000000, 43374.799753
1769.000000, 34877.184307
1768.000000, 45801.108351
1767.000000, 39390.178388
1766.000000, 42060.733676
1765.000000, 40503.042131
1764.000000, 43504.442184
1763.000000, 39079.662864
1762.000000, 40797.071257
1761.000000, 39983.190799
1760.000000, 39201.944315
1759.000000, 47020.101136
1758.000000, 56323.272728
1757.000000, 51231.958517
1756.000000, 38170.507583
1755.000000, 37855.608630
1754.000000, 43074.510741
1753.000000, 41816.568411
1752.000000, 41144.331671
1751.000000, 43884.248668
1750.000000, 39281.856661
1749.000000, 38842.572888
1748.000000, 33982.069392
1747.000000, 38097.005955
1746.000000, 36206.735833
1745.000000, 37312.754707
1744.000000, 36616.604810
1743.000000, 38564.867900
1742.000000, 39096.267652
1741.000000, 39582.528927
1740.000000, 45359.303631
1739.000000, 41424.695941
1738.000000, 44949.886668
1737.000000, 46419.377095
1736.000000, 37063.721245
1735.000000, 39092.757244
1734.000000, 41350.558273
1733.000000, 40853.803578
1732.000000, 46332.201400
1731.000000, 49796.200783
1730.000000, 40899.452776
1729.000000, 38468.978999
1728.000000, 36127.140091
1727.000000, 31748.727602
1726.000000, 39331.656243
1725.000000, 52008.031617
1724.000000, 47787.376782
1723.000000, 38505.677479
1722.000000, 42478.429163
1721.000000, 52958.698913
1720.000000, 46758.240571
1719.000000, 36655.779724
1718.000000, 35659.315433
1717.000000, 39995.766613
1716.000000, 39663.778834
1715.000000, 40662.175611
1714.000000, 41805.490321
1713.000000, 42195.215872
1712.000000, 48148.044052
1711.000000, 47711.967776
1710.000000, 42803.865195
1709.000000, 44829.103478
1708.000000, 48609.439749
1707.000000, 38313.651966
1706.000000, 33998.720558
1705.000000, 39077.414951
1704.000000, 43751.101431
1703.000000, 42044.708799
1702.000000, 33322.877619
1701.000000, 34501.672704
1700.000000, 40505.974778
1699.000000, 45166.761891
1698.000000, 46806.433519
1697.000000, 42202.222789
1696.000000, 40185.029474
1695.000000, 35997.435059
1694.000000, 33615.336695
1693.000000, 39182.779263
1692.000000, 39836.275734
1691.000000, 45385.306071
1690.000000, 48944.480878
1689.000000, 36815.852443
1688.000000, 32605.319549
1687.000000, 36694.714685
1686.000000, 39786.903461
1685.000000, 52774.454736
1684.000000, 53324.805804
1683.000000, 39838.151525
1682.000000, 40764.521569
1681.000000, 36602.405594
1680.000000, 32640.948384
1679.000000, 34609.270492
1678.000000, 37603.036473
1677.000000, 37076.265835
1676.000000, 44550.069435
1675.000000, 50282.426507
1674.000000, 45625.398482
1673.000000, 39020.765920
1672.000000, 36030.927795
1671.000000, 35639.470263
1670.000000, 34299.964175
1669.000000, 37784.255931
1668.000000, 38269.891008
1667.000000, 34311.195070
1666.000000, 37584.539470
1665.000000, 39394.892639
1664.000000, 46402.220134
1663.000000, 45659.463850
1662.000000, 40627.666241
1661.000000, 39808.603071
1660.000000, 47139.392425
1659.000000, 45711.130373
1658.000000, 38627.434155
1657.000000, 40575.462737
1656.000000, 39497.348252
1655.000000, 37252.690957
1654.000000, 44286.188959
1653.000000, 44090.125629
1652.000000, 48175.488330
1651.000000, 48830.006516
1650.000000, 39819.208743
1649.000000, 35688.399897
1648.000000, 41052.221807
1647.000000, 44495.993882
1646.000000, 39840.293939
1645.000000, 39422.312961
1644.000000, 35561.180332
1643.000000, 39589.850353
1642.000000, 43913.526683
1641.000000, 44330.556836
1640.000000, 37300.079610
1639.000000, 34884.220941
1638.000000, 34916.626177
1637.000000, 40340.789980
1636.000000, 43022.217535
1635.000000, 41230.572055
1634.000000, 35810.565736
1633.000000, 37353.782369
1632.000000, 35262.942680
1631.000000, 38892.309139
1630.000000, 54189.641098
1629.000000, 54025.834460
1628.000000, 47637.171944
1627.000000, 37208.295976
1626.000000, 39837.761223
1625.000000, 38142.568600
1624.000000, 40236.495104
1623.000000, 39986.319049
1622.000000, 44366.072621
1621.000000, 46864.573699
1620.000000, 46419.115437
1619.000000, 43251.452701
1618.000000, 36952.131400
1617.000000, 39671.726912
1616.000000, 45081.604661
1615.000000, 37233.307342
1614.000000, 33006.606331
1613.000000, 35917.111914
1612.000000, 41787.985540
1611.000000, 51226.984102
1610.000000, 42700.597954
1609.000000, 42232.235092
1608.000000, 42221.606883
1607.000000, 37754.032668
1606.000000, 35758.766359
1605.000000, 35940.245426
1604.000000, 37661.820487
1603.000000, 44493.176806
1602.000000, 42382.675192
1601.000000, 39060.277286
1600.000000, 39950.998750
1599.000000, 48670.843941
1598.000000, 48786.829012
1597.000000, 46245.867033
1596.000000, 40630.003431
1595.000000, 43559.612991
1594.000000, 33452.861572
1593.000000, 34893.234454
1592.000000, 53767.059344
1591.000000, 51661.081519
1590.000000, 50495.926223
1589.000000, 38343.057596
1588.000000, 34280.546761
1587.000000, 44564.292133
1586.000000, 44265.620081
1585.000000, 37448.394590
1584.000000, 46712.669457
1583.000000, 33682.131964
1582.000000, 33803.649475
1581.000000, 35287.792798
1580.000000, 53978.575391
1579.000000, 52341.621719
1578.000000, 47632.746557
1577.000000, 41642.913444
1576.000000, 37047.895180
1575.000000, 39388.837272
1574.000000, 41250.344087
1573.000000, 37450.128229
1572.000000, 32964.700182
1571.000000, 37957.060563
1570.000000, 41451.272655
1569.000000, 36421.153726
1568.000000, 37630.165999
1567.000000, 45071.065061
1566.000000, 42667.835254
1565.000000, 36511.254388
1564.000000, 38844.908566
1563.000000, 42326.615461
1562.000000, 42073.304207
1561.000000, 42112.654911
1560.000000, 41018.956490
1559.000000, 43816.088883
1558.000000, 37035.938769
1557.000000, 42656.152523
1556.000000, 46827.445691
1555.000000, 42660.337287
1554.000000, 35484.396114
1553.000000, 34529.116679
1552.000000, 36324.934627
1551.000000, 43717.310132
1550.000000, 34458.711442
1549.000000, 42087.000423
1548.000000, 39110.623942
1547.000000, 41062.370699
1546.000000, 37609.710809
1545.000000, 46273.322315
1544.000000, 36119.256221
1543.000000, 40147.402664
1542.000000, 41513.583833
1541.000000, 47072.632939
1540.000000, 45241.594506
1539.000000, 41071.024703
1538.000000, 41314.113123
1537.000000, 46978.883325
1536.000000, 52896.903348
1535.000000, 45905.202555
1534.000000, 35024.540032
1533.000000, 32003.262935
1532.000000, 37009.910222
1531.000000, 43099.854621
1530.000000, 38443.786752
1529.000000, 38652.110667
1528.000000, 39500.426922
1527.000000, 41820.373758
1526.000000, 39904.036777
1525.000000, 46022.868596
1524.000000, 38948.395376
1523.000000, 38858.536231
1522.000000, 37844.531229
1521.000000, 43105.799155
1520.000000, 55655.810199
1519.000000, 37082.115069
1518.000000, 39936.800142
1517.000000, 41612.978262
1516.000000, 36589.812666
1515.000000, 37286.428907
1514.000000, 44522.968242
1513.000000, 44185.055979
1512.000000, 48677.878771
1511.000000, 37873.224949
1510.000000, 36621.914604
1509.000000, 35397.036331
1508.000000, 44215.529149
1507.000000, 47976.988394
1506.000000, 37568.759752
1505.000000, 35185.910526
1504.000000, 38528.562140
1503.000000, 44999.467699
1502.000000, 41194.798489
1501.000000, 46909.879245
1500.000000, 35306.965985
1499.000000, 35374.062697
1498.000000, 37519.374761
1497.000000, 36514.276901
1496.000000, 45264.498397
1495.000000, 43185.014235
1494.000000, 35078.322536
1493.000000, 35922.284041
1492.000000, 43929.541324
1491.000000, 38142.937176
1490.000000, 45063.490651
1489.000000, 41468.755177
1488.000000, 38431.303154
1487.000000, 41581.773416
1486.000000, 49868.927368
1485.000000, 41278.710807
1484.000000, 40334.715615
1483.000000, 31963.406049
1482.000000, 34587.761267
1481.000000, 35332.033020
1480.000000, 41614.102995
1479.000000, 49532.627142
1478.000000, 42431.842260
1477.000000, 40645.142939
1476.000000, 33455.070112
1475.000000, 38135.663014
1474.000000, 45928.626142
1473.000000, 43002.256530
1472.000000, 40666.315301
1471.000000, 46907.950498
1470.000000, 50047.706595
1469.000000, 49139.302646
1468.000000, 44424.518358
1467.000000, 36248.507444
1466.000000, 36706.880318
1465.000000, 43387.670241
1464.000000, 45598.004719
1463.000000, 46257.815408
1462.000000, 44165.015970
1461.000000, 32767.599726
1460.000000, 35297.029236
1459.000000, 35999.846661
1458.000000, 35474.855380
1457.000000, 39600.019097
1456.000000, 41175.308628
1455.000000, 38143.370270
1454.000000, 35891.029259
1453.000000, 34402.970366
1452.000000, 38245.670391
1451.000000, 39671.971474
1450.000000, 46767.675060
1449.000000, 53525.834613
1448.000000, 43459.952113
1447.000000, 37231.781208
1446.000000, 39753.833863
1445.000000, 35232.882448
1444.000000, 34488.386676
1443.000000, 36585.118881
1442.000000, 39825.777207
1441.000000, 43788.616091
1440.000000, 43454.152206
1439.000000, 43706.949015
1438.000000, 38349.141462
1437.000000, 40262.366342
1436.000000, 44982.286734
1435.000000, 44680.373450
1434.000000, 43936.832479
1433.000000, 46024.306392
1432.000000, 48240.792633
1431.000000, 42163.582424
1430.000000, 38918.335991
1429.000000, 38276.169206
1428.000000, 40902.321047
1427.000000, 41315.958745
1426.000000, 39529.498329
1425.000000, 37034.487255
1424.000000, 34726.063866
1423.000000, 46115.231919
1422.000000, 46092.876690
1421.000000, 35810.159608
1420.000000, 36271.435108
1419.000000, 38089.640643
1418.000000, 36760.862034
1417.000000, 33540.130900
1416.000000, 31599.762258
1415.000000, 30629.809316
1414.000000, 44067.572472
1413.000000, 53345.784960
1412.000000, 43202.763492
1411.000000, 36853.381904
1410.000000, 45098.460666
1409.000000, 42656.936785
1408.000000, 36284.747705
1407.000000, 33709.917959
1406.000000, 35520.640947
1405.000000, 35806.128914
1404.000000, 37570.585697
1403.000000, 36741.170123
1402.000000, 41158.638021
1401.000000, 40451.478723
1400.000000, 37173.661871
1399.000000, 38039.160694
1398.000000, 37428.080568
1397.000000, 36819.788907
1396.000000, 38913.671856
1395.000000, 44020.009096
1394.000000, 43009.135766
1393.000000, 46715.792809
1392.000000, 54730.079719
1391.000000, 49592.962851
1390.000000, 42541.343798
1389.000000, 36378.566950
1388.000000, 38025.001069
1387.000000, 35312.070202
1386.000000, 32562.631289
1385.000000, 30734.870371
1384.000000, 29444.479692
1383.000000, 33282.043172
1382.000000, 43214.279528
1381.000000, 52974.961048
1380.000000, 58108.857850
1379.000000, 52859.363988
1378.000000, 42160.570221
1377.000000, 36129.044525
1376.000000, 35900.677912
1375.000000, 37112.649763
1374.000000, 46605.561287
1373.000000, 36455.389644
1372.000000, 30877.724855
1371.000000, 29903.865799
1370.000000, 31379.486973
1369.000000, 32936.749495
1368.000000, 43002.972875
1367.000000, 34778.045950
1366.000000, 32143.558749
1365.000000, 34849.269052
1364.000000, 46017.819452
1363.000000, 42413.213863
1362.000000, 48823.321624
1361.000000, 39307.847692
1360.000000, 44718.780717
1359.000000, 48665.958363
1358.000000, 51693.641144
1357.000000, 52819.658476
1356.000000, 55997.401219
1355.000000, 44920.016246
1354.000000, 41147.405357
1353.000000, 44449.631925
1352.000000, 38886.907496
1351.000000, 38673.287464
1350.000000, 38371.562044
1349.000000, 43146.726577
1348.000000, 35374.201854
1347.000000, 40056.517622
1346.000000, 38097.045677
1345.000000, 35635.412710
1344.000000, 40175.316548
1343.000000, 39034.351229
1342.000000, 38649.350893
1341.000000, 38354.325621
1340.000000, 37057.684631
1339.000000, 33661.055011
1338.000000, 35808.954675
1337.000000, 39496.820726
1336.000000, 33002.896063
1335.000000, 39859.816607
1334.000000, 42292.849143
1333.000000, 41031.897158
1332.000000, 37734.061171
1331.000000, 37862.339874
1330.000000, 37919.213452
1329.000000, 36028.965911
1328.000000, 36849.742551
1327.000000, 38466.387429
1326.000000, 33426.558721
1325.000000, 39328.103867
1324.000000, 33162.705702
1323.000000, 41142.997050
1322.000000, 32157.529828
1321.000000, 39152.874057
1320.000000, 40320.806889
1319.000000, 39233.821786
1318.000000, 31770.567287
1317.000000, 42520.832912
1316.000000, 37170.248435
1315.000000, 33308.823355
1314.000000, 45931.182382
1313.000000, 47513.308854
1312.000000, 34418.251214
1311.000000, 39065.297648
1310.000000, 31360.777414
1309.000000, 48242.540781
1308.000000, 38313.122861
1307.000000, 43203.429231
1306.000000, 43135.372814
1305.000000, 39572.425420
1304.000000, 37718.927186
1303.000000, 38332.283025
1302.000000, 44156.002776
1301.000000, 40619.600918
1300.000000, 47034.842655
1299.000000, 36621.988495
1298.000000, 36009.570453
1297.000000, 35032.779645
1296.000000, 42670.837590
1295.000000, 49625.300068
1294.000000, 36164.310151
1293.000000, 37069.459299
1292.000000, 34742.601610
1291.000000, 38430.014954
1290.000000, 45773.791224
1289.000000, 38006.855787
1288.000000, 42113.945124
1287.000000, 41042.821459
1286.000000, 38706.980991
1285.000000, 36610.010760
1284.000000, 39172.017659
1283.000000, 36363.255178
1282.000000, 38510.472526
1281.000000, 41195.550405
1280.000000, 42212.560966
1279.000000, 32773.234355
1278.000000, 33094.356647
1277.000000, 34926.587843
1276.000000, 41087.430744
1275.000000, 40894.433600
1274.000000, 41113.387556
1273.000000, 36692.901367
1272.000000, 37428.433307
1271.000000, 37696.474052
1270.000000, 41022.791461
1269.000000, 41722.258034
1268.000000, 38231.717609
1267.000000, 34304.406039
1266.000000, 32470.676276
1265.000000, 41182.937253
1264.000000, 43073.326899
1263.000000, 34100.181353
1262.000000, 39241.898478
1261.000000, 48497.390424
1260.000000, 48122.585845
1259.000000, 45497.088093
1258.000000, 40917.455047
1257.000000, 38455.930277
1256.000000, 34197.759134
1255.000000, 32845.130060
1254.000000, 33764.560186
1253.000000, 48111.384257
1252.000000, 46677.157261
1251.000000, 44653.517950
1250.000000, 42254.824013
1249.000000, 35980.980163
1248.000000, 32641.314057
1247.000000, 33725.952467
1246.000000, 32911.881240
1245.000000, 36402.652779
1244.000000, 34517.008708
1243.000000, 34781.456404
1242.000000, 35186.492473
1241.000000, 32234.359324
1240.000000, 39451.292190
1239.000000, 47775.910974
1238.000000, 42803.775815
1237.000000, 44624.750842
1236.000000, 34052.701904
1235.000000, 37108.853942
1234.000000, 41312.889591
1233.000000, 37606.583165
1232.000000, 36999.248319
1231.000000, 38141.983325
1230.000000, 42576.488933
1229.000000, 41148.203969
1228.000000, 34155.995025
1227.000000, 32529.640084
