nm, %T
1800.000000, 91.576882
1799.000000, 91.503444
1798.000000, 91.551955
1797.000000, 91.517411
1796.000000, 91.555294
1795.000000, 91.486164
1794.000000, 91.523386
1793.000000, 91.493597
1792.000000, 91.516633
1791.000000, 91.507846
1790.000000, 91.526038
1789.000000, 91.510862
1788.000000, 91.512044
1787.000000, 91.440964
1786.000000, 91.470203
1785.000000, 91.460212
1784.000000, 91.502394
1783.000000, 91.451069
1782.000000, 91.433008
1781.000000, 91.429762
1780.000000, 91.426568
1779.000000, 91.365880
1778.000000, 91.446244
1777.000000, 91.442204
1776.000000, 91.340651
1775.000000, 91.334022
1774.000000, 91.336156
1773.000000, 91.364891
1772.000000, 91.301147
1771.000000, 91.284429
1770.000000, 91.270405
1769.000000, 91.296591
1768.000000, 91.289194
1767.000000, 91.284398
1766.000000, 91.301150
1765.000000, 91.243822
1764.000000, 91.277124
1763.000000, 91.231873
1762.000000, 91.187745
1761.000000, 91.252587
1760.000000, 91.211684
1759.000000, 91.215673
1758.000000, 91.242132
1757.000000, 91.205512
1756.000000, 91.208947
1755.000000, 91.169813
1754.000000, 91.170268
1753.000000, 91.172459
1752.000000, 91.128868
1751.000000, 91.196965
1750.000000, 91.171838
1749.000000, 91.155447
1748.000000, 91.141156
1747.000000, 91.120265
1746.000000, 91.133098
1745.000000, 91.096753
1744.000000, 91.096779
1743.000000, 91.100108
1742.000000, 91.102476
1741.000000, 91.097985
1740.000000, 91.119573
1739.000000, 91.115900
1738.000000, 91.128015
1737.000000, 91.119974
1736.000000, 91.074719
1735.000000, 91.042772
1734.000000, 91.042071
1733.000000, 91.035717
1732.000000, 91.058347
1731.000000, 91.067174
1730.000000, 91.053518
1729.000000, 91.073824
1728.000000, 91.040791
1727.000000, 91.046203
1726.000000, 91.049469
1725.000000, 90.996426
1724.000000, 90.955571
1723.000000, 90.991904
1722.000000, 91.018496
1721.000000, 91.004245
1720.000000, 91.026844
1719.000000, 90.991950
1718.000000, 90.967389
1717.000000, 90.947289
1716.000000, 90.950347
1715.000000, 90.940834
1714.000000, 90.930564
1713.000000, 90.936043
1712.000000, 90.911265
1711.000000, 90.931953
1710.000000, 90.953628
1709.000000, 90.914412
1708.000000, 90.925517
1707.000000, 90.886927
1706.000000, 90.893014
1705.000000, 90.906527
1704.000000, 90.924210
1703.000000, 90.904335
1702.000000, 90.898527
1701.000000, 90.858571
1700.000000, 90.859129
1699.000000, 90.865842
1698.000000, 90.871613
1697.000000, 90.878053
1696.000000, 90.881164
1695.000000, 90.847434
1694.000000, 90.830965
1693.000000, 90.864170
1692.000000, 90.826557
1691.000000, 90.841653
1690.000000, 90.841714
1689.000000, 90.809276
1688.000000, 90.822711
1687.000000, 90.806861
1686.000000, 90.793070
1685.000000, 90.781866
1684.000000, 90.790895
1683.000000, 90.803846
1682.000000, 90.821629
1681.000000, 90.828727
1680.000000, 90.812809
1679.000000, 90.773092
1678.000000, 90.749921
1677.000000, 90.739698
1676.000000, 90.778757
1675.000000, 90.785190
1674.000000, 90.785070
1673.000000, 90.829587
1672.000000, 90.770718
1671.000000, 90.766772
1670.000000, 90.800066
1669.000000, 90.784900
1668.000000, 90.755658
1667.000000, 90.745744
1666.000000, 90.719301
1665.000000, 90.715527
1664.000000, 90.738016
1663.000000, 90.735062
1662.000000, 90.708599
1661.000000, 90.700899
1660.000000, 90.718476
1659.000000, 90.753501
1658.000000, 90.735336
1657.000000, 90.715169
1656.000000, 90.740167
1655.000000, 90.721748
1654.000000, 90.713065
1653.000000, 90.712566
1652.000000, 90.683740
1651.000000, 90.678561
1650.000000, 90.678707
1649.000000, 90.662788
1648.000000, 90.664516
1647.000000, 90.714254
1646.000000, 90.742829
1645.000000, 90.659009
1644.000000, 90.658816
1643.000000, 90.667125
1642.000000, 90.665840
1641.000000, 90.666813
1640.000000, 90.650213
1639.000000, 90.679075
1638.000000, 90.690214
1637.000000, 90.652757
1636.000000, 90.662437
1635.000000, 90.679990
1634.000000, 90.667791
1633.000000, 90.712708
1632.000000, 90.704282
1631.000000, 90.694751
1630.000000, 90.661687
1629.000000, 90.648829
1628.000000, 90.661546
1627.000000, 90.674387
1626.000000, 90.663886
1625.000000, 90.662905
1624.000000, 90.702242
1623.000000, 90.681050
1622.000000, 90.694108
1621.000000, 90.650355
1620.000000, 90.616515
1619.000000, 90.667238
1618.000000, 90.643519
1617.000000, 90.632510
1616.000000, 90.667198
1615.000000, 90.674822
1614.000000, 90.662602
1613.000000, 90.645706
1612.000000, 90.687428
1611.000000, 90.672742
1610.000000, 90.680281
1609.000000, 90.716833
1608.000000, 90.635338
1607.000000, 90.662735
1606.000000, 90.644358
1605.000000, 90.681926
1604.000000, 90.678840
1603.000000, 90.651025
1602.000000, 90.666069
1601.000000, 90.674001
1600.000000, 90.652055
1599.000000, 90.688865
1598.000000, 90.695457
1597.000000, 90.661602
1596.000000, 90.679784
1595.000000, 90.608117
1594.000000, 90.653604
1593.000000, 90.705711
1592.000000, 90.720972
1591.000000, 90.686266
1590.000000, 90.662824
1589.000000, 90.619458
1588.000000, 90.702698
1587.000000, 90.701473
1586.000000, 90.733068
1585.000000, 90.667197
1584.000000, 90.676074
1583.000000, 90.666251
1582.000000, 90.697470
1581.000000, 90.771841
1580.000000, 90.738142
1579.000000, 90.679428
1578.000000, 90.700846
1577.000000, 90.648551
1576.000000, 90.679435
1575.000000, 90.752891
1574.000000, 90.741933
1573.000000, 90.706770
1572.000000, 90.686966
1571.000000, 90.710019
1570.000000, 90.713601
1569.000000, 90.738516
1568.000000, 90.697672
1567.000000, 90.762407
1566.000000, 90.716850
1565.000000, 90.721042
1564.000000, 90.730499
1563.000000, 90.714335
1562.000000, 90.751730
1561.000000, 90.715332
1560.000000, 90.711469
1559.000000, 90.782777
1558.000000, 90.777369
1557.000000, 90.764584
1556.000000, 90.791624
1555.000000, 90.739483
1554.000000, 90.740928
1553.000000, 90.786350
1552.000000, 90.736963
1551.000000, 90.799961
1550.000000, 90.809944
1549.000000, 90.778265
1548.000000, 90.768088
1547.000000, 90.829269
1546.000000, 90.759786
1545.000000, 90.811296
1544.000000, 90.813386
1543.000000, 90.790709
1542.000000, 90.775627
1541.000000, 90.830351
1540.000000, 90.853295
1539.000000, 90.811838
1538.000000, 90.820152
1537.000000, 90.771875
1536.000000, 90.787834
1535.000000, 90.840992
1534.000000, 90.808523
1533.000000, 90.859472
1532.000000, 90.863652
1531.000000, 90.805451
1530.000000, 90.823918
1529.000000, 90.834483
1528.000000, 90.904394
1527.000000, 90.864237
1526.000000, 90.890023
1525.000000, 90.904757
1524.000000, 90.863949
1523.000000, 90.931881
1522.000000, 90.952494
1521.000000, 90.909543
1520.000000, 90.946986
1519.000000, 90.942853
1518.000000, 91.000874
1517.000000, 90.964589
1516.000000, 90.967507
1515.000000, 90.940034
1514.000000, 90.951990
1513.000000, 90.972399
1512.000000, 91.007716
1511.000000, 90.972244
1510.000000, 90.996282
1509.000000, 90.991362
1508.000000, 91.023371
1507.000000, 91.008643
1506.000000, 91.045185
1505.000000, 91.012880
1504.000000, 91.030970
1503.000000, 91.004889
1502.000000, 91.019816
1501.000000, 91.073770
1500.000000, 91.037679
1499.000000, 91.042318
1498.000000, 91.006420
1497.000000, 91.022091
1496.000000, 91.087783
1495.000000, 91.074643
1494.000000, 91.066751
1493.000000, 91.114046
1492.000000, 91.124556
1491.000000, 91.081165
1490.000000, 91.098664
1489.000000, 91.112460
1488.000000, 91.098736
1487.000000, 91.126195
1486.000000, 91.132941
1485.000000, 91.101918
1484.000000, 91.143953
1483.000000, 91.140982
1482.000000, 91.179572
1481.000000, 91.196466
1480.000000, 91.206746
1479.000000, 91.207676
1478.000000, 91.181802
1477.000000, 91.213664
1476.000000, 91.206283
1475.000000, 91.214022
1474.000000, 91.220038
1473.000000, 91.235736
1472.000000, 91.216157
1471.000000, 91.198620
1470.000000, 91.223799
1469.000000, 91.240888
1468.000000, 91.268961
1467.000000, 91.261184
1466.000000, 91.269875
1465.000000, 91.282767
1464.000000, 91.240287
1463.000000, 91.260306
1462.000000, 91.282615
1461.000000, 91.297985
1460.000000, 91.319961
1459.000000, 91.311676
1458.000000, 91.296974
1457.000000, 91.297981
1456.000000, 91.376562
1455.000000, 91.371623
1454.000000, 91.312082
1453.000000, 91.312830
1452.000000, 91.334645
1451.000000, 91.342407
1450.000000, 91.367304
1449.000000, 91.369463
1448.000000, 91.336485
1447.000000, 91.318921
1446.000000, 91.348550
1445.000000, 91.392452
1444.000000, 91.393915
1443.000000, 91.414035
1442.000000, 91.424323
1441.000000, 91.391761
1440.000000, 91.387588
1439.000000, 91.402215
1438.000000, 91.394840
1437.000000, 91.415327
1436.000000, 91.406733
1435.000000, 91.379013
1434.000000, 91.381015
1433.000000, 91.401223
1432.000000, 91.399425
1431.000000, 91.413939
1430.000000, 91.427511
1429.000000, 91.413859
1428.000000, 91.396066
1427.000000, 91.380104
1426.000000, 91.373043
1425.000000, 91.390285
1424.000000, 91.374019
1423.000000, 91.358319
1422.000000, 91.392019
1421.000000, 91.404442
1420.000000, 91.387562
1419.000000, 91.387144
1418.000000, 91.340151
1417.000000, 91.313908
1416.000000, 91.323832
1415.000000, 91.355423
1414.000000, 91.377439
1413.000000, 91.350923
1412.000000, 91.310625
1411.000000, 91.261308
1410.000000, 91.271726
1409.000000, 91.302271
1408.000000, 91.279290
1407.000000, 91.262183
1406.000000, 91.233707
1405.000000, 91.181804
1404.000000, 91.172268
1403.000000, 91.182810
1402.000000, 91.144746
1401.000000, 91.083522
1400.000000, 91.057431
1399.000000, 90.999397
1398.000000, 90.970734
1397.000000, 90.977034
1396.000000, 90.909983
1395.000000, 90.841684
1394.000000, 90.771845
1393.000000, 90.741929
1392.000000, 90.695193
1391.000000, 90.642082
1390.000000, 90.652130
1389.000000, 90.563591
1388.000000, 90.483286
1387.000000, 90.450619
1386.000000, 90.430979
1385.000000, 90.437986
1384.000000, 90.408317
1383.000000, 90.435468
1382.000000, 90.421572
1381.000000, 90.444793
1380.000000, 90.535341
1379.000000, 90.618529
1378.000000, 90.671659
1377.000000, 90.775965
1376.000000, 90.813737
1375.000000, 90.945138
1374.000000, 91.078723
1373.000000, 91.150120
1372.000000, 91.231998
1371.000000, 91.330266
1370.000000, 91.389039
1369.000000, 91.445621
1368.000000, 91.457233
1367.000000, 91.521552
1366.000000, 91.584434
1365.000000, 91.504590
1364.000000, 91.591124
1363.000000, 91.618432
1362.000000, 91.561445
1361.000000, 91.582763
1360.000000, 91.632713
1359.000000, 91.625533
1358.000000, 91.544321
1357.000000, 91.658293
1356.000000, 91.671078
1355.000000, 91.739636
1354.000000, 91.597151
1353.000000, 91.634379
1352.000000, 91.699619
1351.000000, 91.746661
1350.000000, 91.659159
1349.000000, 91.647283
1348.000000, 91.675738
1347.000000, 91.743620
1346.000000, 91.729450
1345.000000, 91.653853
1344.000000, 91.715698
1343.000000, 91.734514
1342.000000, 91.696038
1341.000000, 91.689168
1340.000000, 91.742942
1339.000000, 91.750135
1338.000000, 91.690904
1337.000000, 91.760133
1336.000000, 91.727563
1335.000000, 91.708107
1334.000000, 91.675756
1333.000000, 91.675493
1332.000000, 91.745575
1331.000000, 91.731718
1330.000000, 91.739691
1329.000000, 91.722581
1328.000000, 91.741513
1327.000000, 91.744779
1326.000000, 91.771771
1325.000000, 91.721402
1324.000000, 91.726420
1323.000000, 91.714204
1322.000000, 91.752291
1321.000000, 91.762546
1320.000000, 91.763843
1319.000000, 91.694388
1318.000000, 91.671425
1317.000000, 91.726840
1316.000000, 91.739433
1315.000000, 91.721367
1314.000000, 91.698548
1313.000000, 91.715144
1312.000000, 91.698352
1311.000000, 91.712762
1310.000000, 91.732537
1309.000000, 91.728457
1308.000000, 91.686871
1307.000000, 91.746813
1306.000000, 91.694818
1305.000000, 91.675518
1304.000000, 91.669231
1303.000000, 91.698090
1302.000000, 91.695617
1301.000000, 91.673824
1300.000000, 91.635574
1299.000000, 91.652339
1298.000000, 91.642669
1297.000000, 91.656143
1296.000000, 91.582380
1295.000000, 91.653043
1294.000000, 91.596356
1293.000000, 91.562255
1292.000000, 91.695786
1291.000000, 91.614418
1290.000000, 91.632580
1289.000000, 91.564578
1288.000000, 91.605467
1287.000000, 91.639050
1286.000000, 91.586329
1285.000000, 91.606567
1284.000000, 91.581453
1283.000000, 91.555705
1282.000000, 91.583432
1281.000000, 91.582143
1280.000000, 91.616032
1279.000000, 91.601951
1278.000000, 91.551845
1277.000000, 91.523522
1276.000000, 91.532309
1275.000000, 91.557935
1274.000000, 91.541073
1273.000000, 91.558864
1272.000000, 91.533818
1271.000000, 91.462172
1270.000000, 91.472366
1269.000000, 91.499853
1268.000000, 91.514466
1267.000000, 91.463553
1266.000000, 91.482561
1265.000000, 91.437033
1264.000000, 91.440747
1263.000000, 91.448138
1262.000000, 91.449456
1261.000000, 91.433222
1260.000000, 91.412710
1259.000000, 91.433290
1258.000000, 91.400179
1257.000000, 91.417761
1256.000000, 91.408108
1255.000000, 91.323843
1254.000000, 91.323998
1253.000000, 91.298008
1252.000000, 91.337059
1251.000000, 91.355497
1250.000000, 91.323293
1249.000000, 91.294326
1248.000000, 91.305438
1247.000000, 91.257969
1246.000000, 91.310874
1245.000000, 91.307245
1244.000000, 91.333940
1243.000000, 91.307535
1242.000000, 91.264847
1241.000000, 91.239851
1240.000000, 91.258950
1239.000000, 91.276618
1238.000000, 91.278101
1237.000000, 91.250404
1236.000000, 91.250108
1235.000000, 91.247043
1234.000000, 91.252217
1233.000000, 91.279469
1232.000000, 91.262542
1231.000000, 91.188790
1230.000000, 91.213098
1229.000000, 91.223452
1228.000000, 91.178440
1227.000000, 91.244683
1226.000000, 91.250783
1225.000000, 91.193078
1224.000000, 91.199183
1223.000000, 91.174155
1222.000000, 91.170868
1221.000000, 91.178550
1220.000000, 91.154917
1219.000000, 91.155610
1218.000000, 91.157263
1217.000000, 91.166551
1216.000000, 91.192842
1215.000000, 91.197893
1214.000000, 91.155945
1213.000000, 91.165950
1212.000000, 91.183619
1211.000000, 91.170935
1210.000000, 91.166617
1209.000000, 91.134145
1208.000000, 91.142526
1207.000000, 91.099687
1206.000000, 91.089328
1205.000000, 91.085091
1204.000000, 91.098694
1203.000000, 91.093330
1202.000000, 91.084788
1201.000000, 91.079256
1200.000000, 91.092419
1199.000000, 91.076461
1198.000000, 91.068599
1197.000000, 91.081828
1196.000000, 91.081987
1195.000000, 91.064786
1194.000000, 91.034168
1193.000000, 91.055008
1192.000000, 91.065647
1191.000000, 91.056287
1190.000000, 91.063921
1189.000000, 91.065630
1188.000000, 91.052798
1187.000000, 91.051944
1186.000000, 91.058156
1185.000000, 91.068943
1184.000000, 91.050411
1183.000000, 91.046884
1182.000000, 91.025576
1181.000000, 90.992856
1180.000000, 91.021701
1179.000000, 91.021967
1178.000000, 90.992225
1177.000000, 90.987018
1176.000000, 91.002388
1175.000000, 91.033598
1174.000000, 91.009337
1173.000000, 91.024655
1172.000000, 91.021441
1171.000000, 90.984743
1170.000000, 90.979632
1169.000000, 90.980934
1168.000000, 90.981098
1167.000000, 90.993632
1166.000000, 91.015620
1165.000000, 90.989438
1164.000000, 90.974319
1163.000000, 90.959608
1162.000000, 90.961436
1161.000000, 90.955643
1160.000000, 90.971898
1159.000000, 90.992829
1158.000000, 90.995135
1157.000000, 90.960778
1156.000000, 90.976712
1155.000000, 90.999980
1154.000000, 91.014965
1153.000000, 90.964959
1152.000000, 90.977252
1151.000000, 91.006111
1150.000000, 91.030987
1149.000000, 90.985565
1148.000000, 90.976446
1147.000000, 90.969723
1146.000000, 90.957291
1145.000000, 91.011573
1144.000000, 90.986354
1143.000000, 90.983741
1142.000000, 91.007150
1141.000000, 90.974348
1140.000000, 90.935347
1139.000000, 90.964728
1138.000000, 90.981452
1137.000000, 90.998259
1136.000000, 90.969826
1135.000000, 90.937327
1134.000000, 90.953404
1133.000000, 90.968633
1132.000000, 90.996209
1131.000000, 90.960693
1130.000000, 91.011621
1129.000000, 90.999705
1128.000000, 90.991189
1127.000000, 90.980304
1126.000000, 90.982321
1125.000000, 91.042383
1124.000000, 91.001506
1123.000000, 90.947058
1122.000000, 90.931772
1121.000000, 90.984404
1120.000000, 90.996395
1119.000000, 90.962830
1118.000000, 91.018294
1117.000000, 90.976964
1116.000000, 91.004150
1115.000000, 91.057050
1114.000000, 91.068312
1113.000000, 91.034002
1112.000000, 91.039090
1111.000000, 91.024779
1110.000000, 90.989239
1109.000000, 91.052674
1108.000000, 91.059083
1107.000000, 91.043070
1106.000000, 91.117104
1105.000000, 91.072743
1104.000000, 91.071355
1103.000000, 91.080620
1102.000000, 91.054506
1101.000000, 91.035685
1100.000000, 91.030546
1099.000000, 91.059441
1098.000000, 91.023121
1097.000000, 91.094348
1096.000000, 91.128575
1095.000000, 91.062590
1094.000000, 91.079785
1093.000000, 91.063907
1092.000000, 91.099380
1091.000000, 91.095520
1090.000000, 91.094496
1089.000000, 91.098699
1088.000000, 91.085853
1087.000000, 91.070978
1086.000000, 91.144978
1085.000000, 91.126360
1084.000000, 91.111103
1083.000000, 91.082528
1082.000000, 91.137515
1081.000000, 91.159846
1080.000000, 91.165655
1079.000000, 91.199619
1078.000000, 91.122194
1077.000000, 91.187505
1076.000000, 91.175473
1075.000000, 91.221893
1074.000000, 91.156469
1073.000000, 91.194154
1072.000000, 91.214899
1071.000000, 91.162644
1070.000000, 91.167584
1069.000000, 91.197703
1068.000000, 91.226005
1067.000000, 91.198388
1066.000000, 91.210978
1065.000000, 91.181870
1064.000000, 91.200676
1063.000000, 91.230396
1062.000000, 91.181137
1061.000000, 91.182902
1060.000000, 91.230150
1059.000000, 91.232214
1058.000000, 91.190905
1057.000000, 91.149536
1056.000000, 91.212076
1055.000000, 91.213509
1054.000000, 91.297692
1053.000000, 91.263060
1052.000000, 91.217113
1051.000000, 91.209515
1050.000000, 91.246017
1049.000000, 91.259871
1048.000000, 91.247071
1047.000000, 91.268638
1046.000000, 91.278024
1045.000000, 91.266631
1044.000000, 91.246904
1043.000000, 91.275873
1042.000000, 91.290076
1041.000000, 91.225509
1040.000000, 91.282931
1039.000000, 91.279818
1038.000000, 91.284153
1037.000000, 91.248876
1036.000000, 91.270985
1035.000000, 91.268022
1034.000000, 91.254016
1033.000000, 91.278081
1032.000000, 91.277351
1031.000000, 91.281981
1030.000000, 91.247685
1029.000000, 91.252553
1028.000000, 91.270043
1027.000000, 91.291883
1026.000000, 91.286124
1025.000000, 91.303470
1024.000000, 91.259981
1023.000000, 91.256734
1022.000000, 91.300894
1021.000000, 91.244820
1020.000000, 91.214280
1019.000000, 91.283973
1018.000000, 91.246973
1017.000000, 91.227067
1016.000000, 91.248153
1015.000000, 91.252311
1014.000000, 91.263259
1013.000000, 91.247614
1012.000000, 91.271012
1011.000000, 91.241135
1010.000000, 91.202773
1009.000000, 91.232167
1008.000000, 91.201486
1007.000000, 91.205566
1006.000000, 91.223993
1005.000000, 91.232180
1004.000000, 91.224233
1003.000000, 91.199847
1002.000000, 91.233251
1001.000000, 91.242117
1000.000000, 91.246940
999.000000, 91.185126
998.000000, 91.243070
997.000000, 91.243003
996.000000, 91.213773
995.000000, 91.209415
994.000000, 91.193651
993.000000, 91.176386
992.000000, 91.178680
991.000000, 91.143209
990.000000, 91.164986
989.000000, 91.184364
988.000000, 91.184879
987.000000, 91.142709
986.000000, 91.153718
985.000000, 91.143494
984.000000, 91.178836
983.000000, 91.140510
982.000000, 91.098234
981.000000, 91.098377
980.000000, 91.068993
979.000000, 91.059007
978.000000, 91.039682
977.000000, 91.020119
976.000000, 90.990762
975.000000, 90.973111
974.000000, 90.993856
973.000000, 90.981855
972.000000, 90.967641
971.000000, 90.981849
970.000000, 91.001707
969.000000, 91.023590
968.000000, 91.044913
967.000000, 91.062594
966.000000, 91.036285
965.000000, 91.019364
964.000000, 91.064565
963.000000, 91.046463
962.000000, 91.018983
961.000000, 91.031576
960.000000, 91.022794
959.000000, 90.994538
958.000000, 91.024915
957.000000, 91.033010
956.000000, 91.025751
955.000000, 91.021284
954.000000, 90.963065
953.000000, 90.915378
952.000000, 90.952237
951.000000, 90.993300
950.000000, 90.956803
949.000000, 90.937269
948.000000, 90.938644
947.000000, 90.940932
946.000000, 90.951410
945.000000, 90.942715
944.000000, 90.928971
943.000000, 90.918692
942.000000, 90.897021
941.000000, 90.892986
940.000000, 90.927366
939.000000, 90.912365
938.000000, 90.857496
937.000000, 90.883079
936.000000, 90.918185
935.000000, 90.883047
934.000000, 90.863441
933.000000, 90.831392
932.000000, 90.849787
931.000000, 90.885656
930.000000, 90.839503
929.000000, 90.835392
928.000000, 90.849080
927.000000, 90.804092
926.000000, 90.839488
925.000000, 90.833867
924.000000, 90.779239
923.000000, 90.764626
922.000000, 90.786612
921.000000, 90.770268
920.000000, 90.766521
919.000000, 90.823503
918.000000, 90.826909
917.000000, 90.766078
916.000000, 90.753295
915.000000, 90.825463
914.000000, 90.817310
913.000000, 90.720886
912.000000, 90.726985
911.000000, 90.761587
910.000000, 90.730180
909.000000, 90.752990
908.000000, 90.754141
907.000000, 90.747854
906.000000, 90.729704
905.000000, 90.729318
904.000000, 90.687448
903.000000, 90.687977
902.000000, 90.693035
901.000000, 90.681283
900.000000, 90.670853
