nm, %R
1800.000000, 103.120600
1799.000000, 103.130400
1798.000000, 103.144800
1797.000000, 103.116800
1796.000000, 103.069800
1795.000000, 103.099100
1794.000000, 103.131300
1793.000000, 103.051400
1792.000000, 103.062100
1791.000000, 103.089800
1790.000000, 103.116900
1789.000000, 103.062200
1788.000000, 103.067400
1787.000000, 103.051000
1786.000000, 103.077700
1785.000000, 103.052700
1784.000000, 103.092500
1783.000000, 103.098200
1782.000000, 103.084200
1781.000000, 103.060800
1780.000000, 103.062000
1779.000000, 103.098600
1778.000000, 103.035300
1777.000000, 103.068200
1776.000000, 103.065500
1775.000000, 103.085800
1774.000000, 103.067100
1773.000000, 103.065100
1772.000000, 103.037100
1771.000000, 103.011400
1770.000000, 103.065400
1769.000000, 103.059100
1768.000000, 103.031600
1767.000000, 103.065900
1766.000000, 103.085300
1765.000000, 103.074500
1764.000000, 103.117300
1763.000000, 103.049600
1762.000000, 103.073100
1761.000000, 103.068900
1760.000000, 103.052900
1759.000000, 103.041900
1758.000000, 103.044500
1757.000000, 103.021700
1756.000000, 103.067800
1755.000000, 103.037500
1754.000000, 103.043400
1753.000000, 103.048600
1752.000000, 103.042600
1751.000000, 103.017500
1750.000000, 102.970300
1749.000000, 103.011300
1748.000000, 103.035300
1747.000000, 103.024400
1746.000000, 103.041200
1745.000000, 103.023400
1744.000000, 103.041000
1743.000000, 103.038600
1742.000000, 103.042800
1741.000000, 103.030600
1740.000000, 103.005100
1739.000000, 103.003500
1738.000000, 102.976000
1737.000000, 103.016300
1736.000000, 103.012100
1735.000000, 102.995600
1734.000000, 102.989500
1733.000000, 103.036600
1732.000000, 103.037700
1731.000000, 103.001900
1730.000000, 102.980800
1729.000000, 102.990100
1728.000000, 102.985700
1727.000000, 102.995200
1726.000000, 102.978500
1725.000000, 102.970000
1724.000000, 102.992000
1723.000000, 102.974900
1722.000000, 102.993600
1721.000000, 103.001700
1720.000000, 102.971000
1719.000000, 102.972400
1718.000000, 102.966800
1717.000000, 102.964200
1716.000000, 102.971700
1715.000000, 102.980900
1714.000000, 102.987600
1713.000000, 102.978300
1712.000000, 102.968100
1711.000000, 102.968000
1710.000000, 102.961400
1709.000000, 102.946400
1708.000000, 102.955700
1707.000000, 102.943600
1706.000000, 102.956600
1705.000000, 102.969400
1704.000000, 102.937100
1703.000000, 102.924500
1702.000000, 102.950700
1701.000000, 102.932100
1700.000000, 102.935700
1699.000000, 102.951200
1698.000000, 102.927500
1697.000000, 102.888800
1696.000000, 102.887400
1695.000000, 102.910600
1694.000000, 102.927300
1693.000000, 102.907200
1692.000000, 102.918700
1691.000000, 102.904700
1690.000000, 102.862200
1689.000000, 102.879700
1688.000000, 102.891100
1687.000000, 102.887900
1686.000000, 102.866800
1685.000000, 102.863300
1684.000000, 102.887200
1683.000000, 102.903700
1682.000000, 102.892300
1681.000000, 102.877300
1680.000000, 102.884600
1679.000000, 102.876700
1678.000000, 102.867200
1677.000000, 102.877600
1676.000000, 102.878500
1675.000000, 102.872400
1674.000000, 102.864700
1673.000000, 102.866500
1672.000000, 102.877000
1671.000000, 102.868600
1670.000000, 102.870600
1669.000000, 102.843300
1668.000000, 102.806200
1667.000000, 102.805200
1666.000000, 102.828300
1665.000000, 102.837900
1664.000000, 102.819400
1663.000000, 102.776000
1662.000000, 102.781000
1661.000000, 102.800700
1660.000000, 102.812300
1659.000000, 102.814400
1658.000000, 102.770100
1657.000000, 102.753600
1656.000000, 102.766800
1655.000000, 102.779900
1654.000000, 102.761100
1653.000000, 102.721500
1652.000000, 102.740400
1651.000000, 102.770200
1650.000000, 102.772400
1649.000000, 102.752400
1648.000000, 102.761800
1647.000000, 102.766000
1646.000000, 102.739000
1645.000000, 102.722800
1644.000000, 102.749200
1643.000000, 102.741000
1642.000000, 102.741600
1641.000000, 102.751800
1640.000000, 102.738900
1639.000000, 102.727200
1638.000000, 102.718900
1637.000000, 102.740700
1636.000000, 102.721000
1635.000000, 102.703800
1634.000000, 102.698300
1633.000000, 102.737000
1632.000000, 102.718200
1631.000000, 102.704800
1630.000000, 102.725700
1629.000000, 102.722100
1628.000000, 102.742700
1627.000000, 102.714700
1626.000000, 102.691600
1625.000000, 102.753200
1624.000000, 102.751400
1623.000000, 102.696200
1622.000000, 102.699800
1621.000000, 102.698200
1620.000000, 102.698600
1619.000000, 102.728100
1618.000000, 102.694500
1617.000000, 102.676400
1616.000000, 102.692700
1615.000000, 102.689900
1614.000000, 102.697600
1613.000000, 102.704100
1612.000000, 102.736600
1611.000000, 102.699200
1610.000000, 102.697200
1609.000000, 102.711800
1608.000000, 102.705200
1607.000000, 102.688200
1606.000000, 102.698600
1605.000000, 102.678800
1604.000000, 102.655700
1603.000000, 102.695200
1602.000000, 102.700600
1601.000000, 102.705300
1600.000000, 102.715100
1599.000000, 102.706200
1598.000000, 102.710500
1597.000000, 102.707600
1596.000000, 102.698900
1595.000000, 102.694700
1594.000000, 102.660700
1593.000000, 102.682100
1592.000000, 102.658400
1591.000000, 102.710100
1590.000000, 102.709100
1589.000000, 102.727100
1588.000000, 102.720500
1587.000000, 102.687100
1586.000000, 102.702700
1585.000000, 102.666800
1584.000000, 102.662800
1583.000000, 102.694400
1582.000000, 102.679000
1581.000000, 102.689600
1580.000000, 102.674800
1579.000000, 102.650500
1578.000000, 102.639000
1577.000000, 102.654000
1576.000000, 102.696800
1575.000000, 102.674300
1574.000000, 102.625800
1573.000000, 102.651700
1572.000000, 102.645800
1571.000000, 102.685200
1570.000000, 102.658400
1569.000000, 102.691900
1568.000000, 102.736900
1567.000000, 102.618300
1566.000000, 102.665500
1565.000000, 102.615400
1564.000000, 102.679300
1563.000000, 102.649400
1562.000000, 102.637600
1561.000000, 102.656300
1560.000000, 102.679800
1559.000000, 102.616900
1558.000000, 102.676100
1557.000000, 102.628000
1556.000000, 102.621200
1555.000000, 102.612200
1554.000000, 102.680500
1553.000000, 102.617300
1552.000000, 102.644200
1551.000000, 102.647300
1550.000000, 102.698100
1549.000000, 102.689500
1548.000000, 102.681400
1547.000000, 102.718000
1546.000000, 102.654400
1545.000000, 102.667500
1544.000000, 102.665200
1543.000000, 102.622400
1542.000000, 102.701100
1541.000000, 102.709900
1540.000000, 102.707900
1539.000000, 102.671200
1538.000000, 102.709600
1537.000000, 102.678700
1536.000000, 102.675100
1535.000000, 102.655500
1534.000000, 102.660300
1533.000000, 102.692800
1532.000000, 102.680100
1531.000000, 102.692100
1530.000000, 102.665200
1529.000000, 102.718500
1528.000000, 102.643300
1527.000000, 102.702900
1526.000000, 102.680100
1525.000000, 102.674400
1524.000000, 102.702100
1523.000000, 102.676700
1522.000000, 102.700000
1521.000000, 102.703500
1520.000000, 102.730200
1519.000000, 102.726200
1518.000000, 102.720400
1517.000000, 102.715300
1516.000000, 102.692400
1515.000000, 102.731900
1514.000000, 102.685600
1513.000000, 102.736300
1512.000000, 102.741200
1511.000000, 102.688400
1510.000000, 102.713700
1509.000000, 102.742900
1508.000000, 102.724300
1507.000000, 102.712200
1506.000000, 102.663400
1505.000000, 102.702700
1504.000000, 102.700800
1503.000000, 102.694500
1502.000000, 102.742300
1501.000000, 102.710800
1500.000000, 102.661500
1499.000000, 102.675400
1498.000000, 102.680900
1497.000000, 102.709500
1496.000000, 102.678200
1495.000000, 102.702100
1494.000000, 102.689000
1493.000000, 102.692900
1492.000000, 102.696800
1491.000000, 102.693700
1490.000000, 102.686000
1489.000000, 102.714000
1488.000000, 102.711400
1487.000000, 102.707100
1486.000000, 102.701800
1485.000000, 102.713300
1484.000000, 102.717900
1483.000000, 102.736400
1482.000000, 102.712500
1481.000000, 102.728300
1480.000000, 102.727700
1479.000000, 102.710800
1478.000000, 102.733700
1477.000000, 102.728900
1476.000000, 102.746400
1475.000000, 102.732900
1474.000000, 102.741100
1473.000000, 102.724600
1472.000000, 102.730800
1471.000000, 102.746600
1470.000000, 102.726600
1469.000000, 102.733800
1468.000000, 102.738400
1467.000000, 102.740200
1466.000000, 102.755800
1465.000000, 102.747600
1464.000000, 102.750200
1463.000000, 102.734000
1462.000000, 102.748100
1461.000000, 102.753300
1460.000000, 102.752600
1459.000000, 102.754800
1458.000000, 102.745400
1457.000000, 102.740000
1456.000000, 102.738700
1455.000000, 102.736900
1454.000000, 102.751500
1453.000000, 102.769400
1452.000000, 102.742700
1451.000000, 102.747400
1450.000000, 102.781700
1449.000000, 102.773800
1448.000000, 102.774100
1447.000000, 102.749100
1446.000000, 102.749900
1445.000000, 102.781500
1444.000000, 102.759100
1443.000000, 102.748200
1442.000000, 102.765600
1441.000000, 102.785400
1440.000000, 102.804500
1439.000000, 102.799000
1438.000000, 102.764800
1437.000000, 102.760700
1436.000000, 102.797400
1435.000000, 102.779200
1434.000000, 102.761700
1433.000000, 102.771400
1432.000000, 102.783400
1431.000000, 102.792300
1430.000000, 102.796200
1429.000000, 102.799300
1428.000000, 102.805100
1427.000000, 102.802800
1426.000000, 102.803800
1425.000000, 102.799600
1424.000000, 102.831900
1423.000000, 102.864700
1422.000000, 102.866300
1421.000000, 102.830900
1420.000000, 102.829900
1419.000000, 102.863000
1418.000000, 102.872800
1417.000000, 102.858200
1416.000000, 102.845400
1415.000000, 102.858600
1414.000000, 102.887200
1413.000000, 102.903000
1412.000000, 102.907800
1411.000000, 102.909600
1410.000000, 102.949000
1409.000000, 102.954900
1408.000000, 102.961400
1407.000000, 102.978400
1406.000000, 102.980200
1405.000000, 102.993200
1404.000000, 103.005800
1403.000000, 103.014800
1402.000000, 103.023600
1401.000000, 103.021100
1400.000000, 103.020600
1399.000000, 103.039200
1398.000000, 103.061500
1397.000000, 103.029400
1396.000000, 103.034700
1395.000000, 103.029100
1394.000000, 103.041200
1393.000000, 103.031300
1392.000000, 103.000400
1391.000000, 103.013000
1390.000000, 103.047100
1389.000000, 103.056500
1388.000000, 103.036400
1387.000000, 103.027900
1386.000000, 103.054700
1385.000000, 103.124700
1384.000000, 103.138000
1383.000000, 103.168200
1382.000000, 103.173600
1381.000000, 103.188900
1380.000000, 103.175600
1379.000000, 103.136400
1378.000000, 103.065000
1377.000000, 103.012800
1376.000000, 103.016500
1375.000000, 103.056300
1374.000000, 103.030800
1373.000000, 103.006900
1372.000000, 103.014300
1371.000000, 103.044900
1370.000000, 103.085000
1369.000000, 103.130200
1368.000000, 103.168500
1367.000000, 103.139000
1366.000000, 103.111400
1365.000000, 103.151400
1364.000000, 103.198300
1363.000000, 103.243500
1362.000000, 103.221500
1361.000000, 103.225800
1360.000000, 103.174200
1359.000000, 103.164900
1358.000000, 103.092900
1357.000000, 103.092800
1356.000000, 103.128300
1355.000000, 103.058200
1354.000000, 103.018900
1353.000000, 103.023100
1352.000000, 103.024400
1351.000000, 103.007500
1350.000000, 102.978700
1349.000000, 103.002600
1348.000000, 102.971100
1347.000000, 102.965300
1346.000000, 102.996500
1345.000000, 102.956100
1344.000000, 102.980200
1343.000000, 102.935300
1342.000000, 102.933000
1341.000000, 102.928900
1340.000000, 102.916000
1339.000000, 102.959800
1338.000000, 102.985300
1337.000000, 102.967000
1336.000000, 102.917400
1335.000000, 102.928700
1334.000000, 102.993100
1333.000000, 102.965200
1332.000000, 102.953600
1331.000000, 103.016100
1330.000000, 103.002200
1329.000000, 102.985200
1328.000000, 102.942300
1327.000000, 102.975000
1326.000000, 103.009400
1325.000000, 103.006400
1324.000000, 103.008300
1323.000000, 103.010800
1322.000000, 103.049900
1321.000000, 103.036100
1320.000000, 103.050300
1319.000000, 103.073100
1318.000000, 103.049800
1317.000000, 103.073900
1316.000000, 103.072600
1315.000000, 103.049500
1314.000000, 103.081000
1313.000000, 103.067700
1312.000000, 103.073800
1311.000000, 103.094900
1310.000000, 103.096900
1309.000000, 103.130000
1308.000000, 103.130300
1307.000000, 103.120600
1306.000000, 103.101300
1305.000000, 103.121200
1304.000000, 103.098900
1303.000000, 103.198200
1302.000000, 103.152100
1301.000000, 103.085700
1300.000000, 103.171900
1299.000000, 103.156600
1298.000000, 103.163600
1297.000000, 103.179400
1296.000000, 103.136100
1295.000000, 103.144300
1294.000000, 103.140000
1293.000000, 103.213600
1292.000000, 103.175200
1291.000000, 103.163500
1290.000000, 103.182200
1289.000000, 103.201100
1288.000000, 103.162400
1287.000000, 103.126400
1286.000000, 103.187700
1285.000000, 103.172800
1284.000000, 103.201000
1283.000000, 103.188500
1282.000000, 103.188100
1281.000000, 103.216900
1280.000000, 103.188800
1279.000000, 103.215400
1278.000000, 103.217800
1277.000000, 103.217000
1276.000000, 103.203100
1275.000000, 103.223500
1274.000000, 103.263900
1273.000000, 103.283900
1272.000000, 103.274200
1271.000000, 103.257100
1270.000000, 103.279800
1269.000000, 103.256800
1268.000000, 103.293400
1267.000000, 103.255800
1266.000000, 103.310000
1265.000000, 103.305400
1264.000000, 103.310200
1263.000000, 103.313400
1262.000000, 103.294700
1261.000000, 103.337300
1260.000000, 103.322000
1259.000000, 103.345700
1258.000000, 103.361300
1257.000000, 103.365500
1256.000000, 103.358300
1255.000000, 103.321800
1254.000000, 103.358200
1253.000000, 103.343800
1252.000000, 103.367800
1251.000000, 103.377100
1250.000000, 103.362800
1249.000000, 103.363100
1248.000000, 103.393900
1247.000000, 103.361700
1246.000000, 103.404600
1245.000000, 103.396700
1244.000000, 103.399700
1243.000000, 103.386300
1242.000000, 103.381100
1241.000000, 103.405900
1240.000000, 103.413300
1239.000000, 103.454200
1238.000000, 103.461000
1237.000000, 103.470500
1236.000000, 103.464300
1235.000000, 103.477300
1234.000000, 103.491800
1233.000000, 103.518400
1232.000000, 103.515300
1231.000000, 103.484600
1230.000000, 103.500400
1229.000000, 103.567800
1228.000000, 103.552300
1227.000000, 103.547200
1226.000000, 103.552000
1225.000000, 103.576300
1224.000000, 103.575600
1223.000000, 103.626000
1222.000000, 103.648400
1221.000000, 103.635300
1220.000000, 103.627500
1219.000000, 103.657400
1218.000000, 103.635300
1217.000000, 103.625700
1216.000000, 103.662600
1215.000000, 103.654200
1214.000000, 103.650300
1213.000000, 103.653700
1212.000000, 103.668400
1211.000000, 103.703000
1210.000000, 103.712700
1209.000000, 103.692000
1208.000000, 103.694900
1207.000000, 103.693200
1206.000000, 103.681800
1205.000000, 103.695900
1204.000000, 103.707800
1203.000000, 103.714300
1202.000000, 103.720600
1201.000000, 103.756900
1200.000000, 103.753500
1199.000000, 103.719100
1198.000000, 103.753300
1197.000000, 103.753100
1196.000000, 103.747400
1195.000000, 103.763600
1194.000000, 103.778300
1193.000000, 103.812600
1192.000000, 103.830500
1191.000000, 103.825900
1190.000000, 103.832400
1189.000000, 103.869500
1188.000000, 103.910800
1187.000000, 103.888000
1186.000000, 103.893700
1185.000000, 103.937600
1184.000000, 103.940600
1183.000000, 103.952700
1182.000000, 103.953900
1181.000000, 103.953300
1180.000000, 103.974800
1179.000000, 103.977700
1178.000000, 103.992600
1177.000000, 104.021000
1176.000000, 104.017200
1175.000000, 103.986800
1174.000000, 104.001300
1173.000000, 104.025100
1172.000000, 104.034000
1171.000000, 104.060200
1170.000000, 104.079500
1169.000000, 104.076700
1168.000000, 104.071900
1167.000000, 104.103700
1166.000000, 104.115500
1165.000000, 104.116100
1164.000000, 104.138200
1163.000000, 104.126800
1162.000000, 104.137300
1161.000000, 104.138900
1160.000000, 104.165400
1159.000000, 104.167300
1158.000000, 104.190100
1157.000000, 104.222700
1156.000000, 104.213500
1155.000000, 104.245300
1154.000000, 104.280900
1153.000000, 104.285700
1152.000000, 104.326600
1151.000000, 104.326800
1150.000000, 104.288300
1149.000000, 104.290900
1148.000000, 104.302100
1147.000000, 104.342800
1146.000000, 104.366200
1145.000000, 104.375800
1144.000000, 104.367600
1143.000000, 104.375200
1142.000000, 104.394900
1141.000000, 104.420800
1140.000000, 104.446000
1139.000000, 104.418300
1138.000000, 104.420200
1137.000000, 104.446700
1136.000000, 104.446300
1135.000000, 104.479600
1134.000000, 104.517300
1133.000000, 104.501500
1132.000000, 104.495800
1131.000000, 104.517200
1130.000000, 104.538100
1129.000000, 104.568400
1128.000000, 104.589900
1127.000000, 104.591700
1126.000000, 104.584500
1125.000000, 104.583200
1124.000000, 104.634800
1123.000000, 104.625200
1122.000000, 104.655600
1121.000000, 104.663900
1120.000000, 104.683400
1119.000000, 104.685800
1118.000000, 104.724000
1117.000000, 104.725000
1116.000000, 104.743500
1115.000000, 104.764500
1114.000000, 104.769600
1113.000000, 104.764400
1112.000000, 104.755500
1111.000000, 104.763600
1110.000000, 104.791600
1109.000000, 104.826200
1108.000000, 104.827600
1107.000000, 104.875800
1106.000000, 104.864400
1105.000000, 104.855400
1104.000000, 104.857200
1103.000000, 104.911300
1102.000000, 104.886800
1101.000000, 104.913400
1100.000000, 104.947900
1099.000000, 104.916200
1098.000000, 104.974800
1097.000000, 104.949800
1096.000000, 104.987700
1095.000000, 105.049500
1094.000000, 105.072800
1093.000000, 105.081800
1092.000000, 105.097000
1091.000000, 105.116500
1090.000000, 105.094200
1089.000000, 105.127800
1088.000000, 105.153800
1087.000000, 105.166300
1086.000000, 105.169200
1085.000000, 105.192800
1084.000000, 105.211000
1083.000000, 105.191300
1082.000000, 105.273900
1081.000000, 105.289000
1080.000000, 105.295700
1079.000000, 105.333500
1078.000000, 105.336100
1077.000000, 105.362100
1076.000000, 105.352400
1075.000000, 105.414700
1074.000000, 105.413400
1073.000000, 105.419100
1072.000000, 105.499100
1071.000000, 105.495400
1070.000000, 105.478800
1069.000000, 105.491500
1068.000000, 105.572900
1067.000000, 105.557300
1066.000000, 105.589200
1065.000000, 105.602000
1064.000000, 105.622800
1063.000000, 105.609600
1062.000000, 105.681800
1061.000000, 105.742600
1060.000000, 105.687000
1059.000000, 105.705400
1058.000000, 105.755900
1057.000000, 105.792400
1056.000000, 105.861800
1055.000000, 105.817000
1054.000000, 105.870400
1053.000000, 105.882000
1052.000000, 105.918400
1051.000000, 105.941200
1050.000000, 105.995900
1049.000000, 106.016300
1048.000000, 106.016900
1047.000000, 106.022800
1046.000000, 106.055300
1045.000000, 106.077700
1044.000000, 106.126600
1043.000000, 106.157400
1042.000000, 106.161100
1041.000000, 106.200800
1040.000000, 106.223300
1039.000000, 106.250200
1038.000000, 106.281400
1037.000000, 106.313300
1036.000000, 106.337900
1035.000000, 106.366100
1034.000000, 106.390200
1033.000000, 106.428200
1032.000000, 106.418500
1031.000000, 106.486000
1030.000000, 106.492700
1029.000000, 106.562900
1028.000000, 106.614400
1027.000000, 106.606700
1026.000000, 106.676000
1025.000000, 106.671100
1024.000000, 106.699700
1023.000000, 106.761400
1022.000000, 106.789900
1021.000000, 106.799900
1020.000000, 106.805600
1019.000000, 106.857400
1018.000000, 106.907000
1017.000000, 106.920200
1016.000000, 106.980200
1015.000000, 107.008600
1014.000000, 107.061000
1013.000000, 107.076100
1012.000000, 107.097900
1011.000000, 107.138600
1010.000000, 107.185400
1009.000000, 107.227700
1008.000000, 107.285300
1007.000000, 107.346100
1006.000000, 107.356700
1005.000000, 107.429000
1004.000000, 107.408500
1003.000000, 107.443700
1002.000000, 107.505100
1001.000000, 107.579800
1000.000000, 107.614800
999.000000, 107.628100
998.000000, 107.667600
997.000000, 107.711100
996.000000, 107.764700
995.000000, 107.778000
994.000000, 107.829600
993.000000, 107.899700
992.000000, 107.943300
991.000000, 107.998000
990.000000, 108.037800
989.000000, 108.047000
988.000000, 108.100700
987.000000, 108.178800
986.000000, 108.205200
985.000000, 108.230100
984.000000, 108.312200
983.000000, 108.332300
982.000000, 108.381700
981.000000, 108.474700
980.000000, 108.479300
979.000000, 108.529400
978.000000, 108.632400
977.000000, 108.663000
976.000000, 108.734800
975.000000, 108.731700
974.000000, 108.798500
973.000000, 108.903500
972.000000, 108.926200
971.000000, 108.955900
970.000000, 109.056800
969.000000, 109.120300
968.000000, 109.209000
967.000000, 109.245200
966.000000, 109.269300
965.000000, 109.327100
964.000000, 109.412300
963.000000, 109.500200
962.000000, 109.559500
961.000000, 109.623600
960.000000, 109.703200
959.000000, 109.767000
958.000000, 109.788900
957.000000, 109.853600
956.000000, 109.968000
955.000000, 110.029900
954.000000, 110.072000
953.000000, 110.148400
952.000000, 110.252800
951.000000, 110.342100
950.000000, 110.380200
949.000000, 110.428800
948.000000, 110.557000
947.000000, 110.643300
946.000000, 110.646300
945.000000, 110.735100
944.000000, 110.853700
943.000000, 110.967000
942.000000, 111.016300
941.000000, 111.038600
940.000000, 111.155000
939.000000, 111.281600
938.000000, 111.357300
937.000000, 111.453400
936.000000, 111.562600
935.000000, 111.609300
934.000000, 111.722800
933.000000, 111.784400
932.000000, 111.852800
931.000000, 111.980800
930.000000, 112.070400
929.000000, 112.176600
928.000000, 112.280600
927.000000, 112.336500
926.000000, 112.446900
925.000000, 112.553400
924.000000, 112.663100
923.000000, 112.816100
922.000000, 112.932200
921.000000, 113.023600
920.000000, 113.127900
919.000000, 113.274400
918.000000, 113.409100
917.000000, 113.500800
916.000000, 113.591600
915.000000, 113.756300
914.000000, 113.898200
913.000000, 113.998600
912.000000, 114.107300
911.000000, 114.192300
910.000000, 114.345900
909.000000, 114.487100
908.000000, 114.608300
907.000000, 114.772600
906.000000, 114.897300
905.000000, 115.041900
904.000000, 115.159600
903.000000, 115.270900
902.000000, 115.414700
901.000000, 115.493100
900.000000, 115.650000
