nm, %R
1800.000000, 90.465795
1799.000000, 90.478449
1798.000000, 90.470227
1797.000000, 90.467996
1796.000000, 90.526136
1795.000000, 90.479632
1794.000000, 90.416769
1793.000000, 90.490669
1792.000000, 90.481464
1791.000000, 90.496712
1790.000000, 90.463919
1789.000000, 90.484793
1788.000000, 90.470739
1787.000000, 90.498708
1786.000000, 90.450692
1785.000000, 90.449764
1784.000000, 90.432395
1783.000000, 90.431759
1782.000000, 90.457607
1781.000000, 90.465145
1780.000000, 90.471588
1779.000000, 90.414902
1778.000000, 90.473866
1777.000000, 90.464628
1776.000000, 90.419173
1775.000000, 90.416357
1774.000000, 90.431243
1773.000000, 90.418480
1772.000000, 90.455675
1771.000000, 90.474919
1770.000000, 90.428275
1769.000000, 90.459710
1768.000000, 90.477210
1767.000000, 90.421573
1766.000000, 90.433778
1765.000000, 90.404826
1764.000000, 90.390633
1763.000000, 90.447644
1762.000000, 90.418483
1761.000000, 90.416095
1760.000000, 90.431841
1759.000000, 90.444437
1758.000000, 90.435037
1757.000000, 90.437774
1756.000000, 90.426359
1755.000000, 90.415743
1754.000000, 90.407814
1753.000000, 90.408851
1752.000000, 90.401207
1751.000000, 90.428645
1750.000000, 90.468101
1749.000000, 90.422695
1748.000000, 90.394324
1747.000000, 90.374934
1746.000000, 90.381365
1745.000000, 90.403721
1744.000000, 90.415804
1743.000000, 90.375578
1742.000000, 90.379012
1741.000000, 90.402434
1740.000000, 90.424909
1739.000000, 90.394981
1738.000000, 90.400316
1737.000000, 90.373876
1736.000000, 90.399112
1735.000000, 90.411505
1734.000000, 90.368335
1733.000000, 90.334049
1732.000000, 90.344570
1731.000000, 90.342358
1730.000000, 90.344534
1729.000000, 90.356033
1728.000000, 90.369580
1727.000000, 90.339974
1726.000000, 90.338859
1725.000000, 90.358569
1724.000000, 90.335564
1723.000000, 90.344582
1722.000000, 90.364452
1721.000000, 90.334938
1720.000000, 90.359116
1719.000000, 90.364346
1718.000000, 90.350929
1717.000000, 90.322436
1716.000000, 90.316807
1715.000000, 90.297912
1714.000000, 90.303433
1713.000000, 90.331342
1712.000000, 90.297739
1711.000000, 90.285764
1710.000000, 90.292691
1709.000000, 90.310978
1708.000000, 90.288856
1707.000000, 90.300514
1706.000000, 90.264794
1705.000000, 90.263736
1704.000000, 90.282833
1703.000000, 90.265358
1702.000000, 90.256003
1701.000000, 90.271795
1700.000000, 90.257563
1699.000000, 90.263584
1698.000000, 90.281357
1697.000000, 90.303957
1696.000000, 90.290742
1695.000000, 90.264203
1694.000000, 90.269311
1693.000000, 90.289304
1692.000000, 90.268173
1691.000000, 90.299168
1690.000000, 90.329042
1689.000000, 90.297969
1688.000000, 90.290419
1687.000000, 90.294066
1686.000000, 90.314092
1685.000000, 90.320381
1684.000000, 90.300524
1683.000000, 90.278038
1682.000000, 90.275465
1681.000000, 90.289845
1680.000000, 90.300543
1679.000000, 90.293091
1678.000000, 90.302266
1677.000000, 90.303394
1676.000000, 90.300204
1675.000000, 90.308486
1674.000000, 90.309416
1673.000000, 90.304954
1672.000000, 90.297137
1671.000000, 90.299629
1670.000000, 90.309555
1669.000000, 90.293132
1668.000000, 90.308260
1667.000000, 90.312447
1666.000000, 90.262227
1665.000000, 90.281107
1664.000000, 90.319996
1663.000000, 90.343529
1662.000000, 90.320428
1661.000000, 90.296231
1660.000000, 90.298687
1659.000000, 90.301578
1658.000000, 90.328750
1657.000000, 90.337410
1656.000000, 90.320437
1655.000000, 90.325197
1654.000000, 90.335875
1653.000000, 90.372005
1652.000000, 90.332173
1651.000000, 90.303850
1650.000000, 90.312755
1649.000000, 90.336406
1648.000000, 90.315998
1647.000000, 90.322383
1646.000000, 90.354864
1645.000000, 90.371562
1644.000000, 90.338769
1643.000000, 90.324382
1642.000000, 90.346051
1641.000000, 90.353363
1640.000000, 90.370972
1639.000000, 90.371878
1638.000000, 90.356142
1637.000000, 90.333594
1636.000000, 90.349355
1635.000000, 90.389749
1634.000000, 90.407346
1633.000000, 90.378023
1632.000000, 90.391849
1631.000000, 90.362348
1630.000000, 90.361490
1629.000000, 90.350581
1628.000000, 90.331186
1627.000000, 90.369141
1626.000000, 90.419617
1625.000000, 90.342746
1624.000000, 90.334169
1623.000000, 90.370170
1622.000000, 90.389220
1621.000000, 90.396130
1620.000000, 90.387234
1619.000000, 90.356461
1618.000000, 90.366395
1617.000000, 90.420512
1616.000000, 90.412903
1615.000000, 90.387803
1614.000000, 90.389871
1613.000000, 90.405992
1612.000000, 90.376204
1611.000000, 90.376865
1610.000000, 90.394830
1609.000000, 90.399618
1608.000000, 90.395635
1607.000000, 90.420498
1606.000000, 90.410533
1605.000000, 90.459095
1604.000000, 90.482954
1603.000000, 90.434069
1602.000000, 90.414605
1601.000000, 90.428536
1600.000000, 90.455971
1599.000000, 90.424448
1598.000000, 90.429988
1597.000000, 90.464799
1596.000000, 90.413449
1595.000000, 90.423068
1594.000000, 90.453684
1593.000000, 90.435789
1592.000000, 90.459442
1591.000000, 90.401288
1590.000000, 90.381994
1589.000000, 90.378202
1588.000000, 90.371199
1587.000000, 90.418763
1586.000000, 90.406272
1585.000000, 90.435493
1584.000000, 90.446191
1583.000000, 90.392637
1582.000000, 90.407437
1581.000000, 90.432436
1580.000000, 90.455800
1579.000000, 90.424694
1578.000000, 90.435973
1577.000000, 90.429551
1576.000000, 90.381153
1575.000000, 90.388909
1574.000000, 90.410192
1573.000000, 90.390346
1572.000000, 90.424242
1571.000000, 90.383139
1570.000000, 90.412761
1569.000000, 90.372939
1568.000000, 90.312326
1567.000000, 90.403881
1566.000000, 90.356579
1565.000000, 90.418398
1564.000000, 90.384411
1563.000000, 90.404903
1562.000000, 90.384202
1561.000000, 90.381799
1560.000000, 90.352698
1559.000000, 90.443105
1558.000000, 90.363701
1557.000000, 90.394283
1556.000000, 90.426971
1555.000000, 90.409063
1554.000000, 90.324252
1553.000000, 90.396915
1552.000000, 90.392645
1551.000000, 90.364468
1550.000000, 90.320629
1549.000000, 90.354109
1548.000000, 90.325755
1547.000000, 90.285827
1546.000000, 90.367593
1545.000000, 90.346689
1544.000000, 90.315330
1543.000000, 90.369935
1542.000000, 90.296477
1541.000000, 90.284916
1540.000000, 90.292698
1539.000000, 90.310339
1538.000000, 90.303346
1537.000000, 90.323923
1536.000000, 90.321638
1535.000000, 90.339457
1534.000000, 90.281857
1533.000000, 90.306166
1532.000000, 90.304329
1531.000000, 90.309555
1530.000000, 90.339626
1529.000000, 90.305655
1528.000000, 90.342924
1527.000000, 90.329221
1526.000000, 90.328429
1525.000000, 90.324071
1524.000000, 90.310132
1523.000000, 90.297659
1522.000000, 90.300408
1521.000000, 90.300295
1520.000000, 90.330261
1519.000000, 90.290378
1518.000000, 90.318229
1517.000000, 90.290399
1516.000000, 90.335014
1515.000000, 90.310413
1514.000000, 90.352567
1513.000000, 90.275289
1512.000000, 90.273851
1511.000000, 90.328492
1510.000000, 90.321539
1509.000000, 90.288510
1508.000000, 90.297306
1507.000000, 90.274864
1506.000000, 90.327531
1505.000000, 90.310465
1504.000000, 90.346844
1503.000000, 90.345502
1502.000000, 90.274987
1501.000000, 90.301621
1500.000000, 90.351969
1499.000000, 90.340885
1498.000000, 90.310033
1497.000000, 90.312708
1496.000000, 90.327710
1495.000000, 90.288618
1494.000000, 90.290669
1493.000000, 90.300340
1492.000000, 90.284863
1491.000000, 90.276209
1490.000000, 90.301913
1489.000000, 90.263912
1488.000000, 90.255680
1487.000000, 90.297130
1486.000000, 90.279702
1485.000000, 90.275331
1484.000000, 90.281613
1483.000000, 90.273863
1482.000000, 90.291044
1481.000000, 90.294077
1480.000000, 90.288104
1479.000000, 90.295598
1478.000000, 90.307397
1477.000000, 90.337713
1476.000000, 90.325576
1475.000000, 90.328078
1474.000000, 90.323354
1473.000000, 90.316448
1472.000000, 90.305836
1471.000000, 90.272547
1470.000000, 90.321381
1469.000000, 90.314382
1468.000000, 90.311390
1467.000000, 90.275494
1466.000000, 90.259209
1465.000000, 90.276543
1464.000000, 90.288976
1463.000000, 90.294802
1462.000000, 90.274574
1461.000000, 90.251848
1460.000000, 90.241854
1459.000000, 90.251486
1458.000000, 90.266433
1457.000000, 90.269935
1456.000000, 90.277386
1455.000000, 90.251057
1454.000000, 90.237755
1453.000000, 90.231880
1452.000000, 90.253799
1451.000000, 90.256266
1450.000000, 90.235891
1449.000000, 86.236812
1448.000000, 85.194690
1447.000000, 90.224476
1446.000000, 90.230846
1445.000000, 90.187149
1444.000000, 90.192856
1443.000000, 90.181493
1442.000000, 90.181131
1441.000000, 90.177612
1440.000000, 90.161240
1439.000000, 90.152022
1438.000000, 90.176482
1437.000000, 90.178837
1436.000000, 90.128397
1435.000000, 90.129451
1434.000000, 90.137633
1433.000000, 90.143936
1432.000000, 90.131214
1431.000000, 90.104113
1430.000000, 90.089709
1429.000000, 90.061582
1428.000000, 90.031379
1427.000000, 90.032820
1426.000000, 90.046368
1425.000000, 90.037916
1424.000000, 89.995310
1423.000000, 89.940551
1422.000000, 89.900299
1421.000000, 89.921125
1420.000000, 89.907197
1419.000000, 89.857550
1418.000000, 89.847653
1417.000000, 89.840262
1416.000000, 89.826522
1415.000000, 89.788931
1414.000000, 89.761013
1413.000000, 89.728432
1412.000000, 89.667850
1411.000000, 89.625059
1410.000000, 89.561283
1409.000000, 89.534308
1408.000000, 89.506052
1407.000000, 89.449223
1406.000000, 89.373566
1405.000000, 89.310893
1404.000000, 89.264384
1403.000000, 89.159214
1402.000000, 89.058302
1401.000000, 88.998949
1400.000000, 88.928734
1399.000000, 88.842943
1398.000000, 88.759619
1397.000000, 88.692472
1396.000000, 88.586408
1395.000000, 88.520103
1394.000000, 88.371409
1393.000000, 88.291311
1392.000000, 88.187465
1391.000000, 88.065500
1390.000000, 87.928752
1389.000000, 87.846808
1388.000000, 87.761673
1387.000000, 87.686288
1386.000000, 87.628764
1385.000000, 87.579863
1384.000000, 87.589918
1383.000000, 87.575522
1382.000000, 87.646111
1381.000000, 87.739905
1380.000000, 87.868498
1379.000000, 88.012646
1378.000000, 88.195986
1377.000000, 88.407099
1376.000000, 88.619195
1375.000000, 88.785947
1374.000000, 88.978416
1373.000000, 89.219410
1372.000000, 89.387721
1371.000000, 89.555020
1370.000000, 89.712616
1369.000000, 89.780051
1368.000000, 89.848196
1367.000000, 89.966248
1366.000000, 90.101108
1365.000000, 90.138117
1364.000000, 90.133921
1363.000000, 90.094555
1362.000000, 90.141660
1361.000000, 90.166283
1360.000000, 90.216237
1359.000000, 90.269630
1358.000000, 90.281947
1357.000000, 90.254192
1356.000000, 90.225697
1355.000000, 90.302139
1354.000000, 90.268936
1353.000000, 90.267259
1352.000000, 90.353329
1351.000000, 90.338570
1350.000000, 90.363071
1349.000000, 90.293050
1348.000000, 90.340051
1347.000000, 90.377981
1346.000000, 90.365397
1345.000000, 90.412218
1344.000000, 90.341423
1343.000000, 90.410433
1342.000000, 90.453232
1341.000000, 90.431336
1340.000000, 90.478298
1339.000000, 90.451169
1338.000000, 90.416555
1337.000000, 90.414676
1336.000000, 90.476971
1335.000000, 90.485088
1334.000000, 90.438054
1333.000000, 90.484708
1332.000000, 90.505884
1331.000000, 90.447634
1330.000000, 90.523495
1329.000000, 90.501975
1328.000000, 90.505601
1327.000000, 90.523063
1326.000000, 90.491879
1325.000000, 90.489743
1324.000000, 90.524432
1323.000000, 90.533591
1322.000000, 90.524805
1321.000000, 90.474154
1320.000000, 90.539907
1319.000000, 90.491364
1318.000000, 90.498183
1317.000000, 90.513264
1316.000000, 90.537771
1315.000000, 90.560832
1314.000000, 90.594476
1313.000000, 90.552471
1312.000000, 90.574673
1311.000000, 90.541929
1310.000000, 90.574116
1309.000000, 90.548096
1308.000000, 90.569660
1307.000000, 90.587807
1306.000000, 90.609246
1305.000000, 90.590331
1304.000000, 90.635954
1303.000000, 90.498353
1302.000000, 90.545183
1301.000000, 90.658908
1300.000000, 90.554198
1299.000000, 90.605078
1298.000000, 90.597692
1297.000000, 90.590964
1296.000000, 90.609935
1295.000000, 90.575760
1294.000000, 90.625665
1293.000000, 90.521327
1292.000000, 90.577978
1291.000000, 90.559094
1290.000000, 90.631662
1289.000000, 90.548293
1288.000000, 90.614182
1287.000000, 90.629991
1286.000000, 90.611780
1285.000000, 90.576370
1284.000000, 90.543904
1283.000000, 90.575735
1282.000000, 90.592947
1281.000000, 90.614812
1280.000000, 90.626913
1279.000000, 90.596795
1278.000000, 90.600784
1277.000000, 90.630343
1276.000000, 90.636263
1275.000000, 90.586925
1274.000000, 90.573474
1273.000000, 90.551843
1272.000000, 90.547117
1271.000000, 90.597146
1270.000000, 90.586941
1269.000000, 90.594648
1268.000000, 90.558360
1267.000000, 90.634082
1266.000000, 90.538386
1265.000000, 90.556310
1264.000000, 90.562854
1263.000000, 90.587261
1262.000000, 90.575587
1261.000000, 90.569069
1260.000000, 90.578009
1259.000000, 90.563419
1258.000000, 90.552985
1257.000000, 90.500424
1256.000000, 90.514052
1255.000000, 90.573332
1254.000000, 90.517658
1253.000000, 90.545490
1252.000000, 90.505638
1251.000000, 90.506624
1250.000000, 90.501932
1249.000000, 90.500909
1248.000000, 90.481365
1247.000000, 90.500042
1246.000000, 90.477421
1245.000000, 90.515137
1244.000000, 90.521637
1243.000000, 90.507032
1242.000000, 90.511965
1241.000000, 90.476379
1240.000000, 90.498706
1239.000000, 90.527255
1238.000000, 90.534227
1237.000000, 90.515464
1236.000000, 90.545495
1235.000000, 90.553879
1234.000000, 90.534258
1233.000000, 90.538343
1232.000000, 90.567264
1231.000000, 90.600781
1230.000000, 90.591794
1229.000000, 90.566153
1228.000000, 90.584076
1227.000000, 90.589582
1226.000000, 90.596015
1225.000000, 90.584725
1224.000000, 90.602231
1223.000000, 90.577327
1222.000000, 90.556898
1221.000000, 90.570621
1220.000000, 90.586260
1219.000000, 90.560700
1218.000000, 90.604199
1217.000000, 90.622932
1216.000000, 90.586502
1215.000000, 90.575065
1214.000000, 90.572214
1213.000000, 90.588684
1212.000000, 90.598501
1211.000000, 90.570359
1210.000000, 90.548619
1209.000000, 90.579683
1208.000000, 90.620756
1207.000000, 90.626034
1206.000000, 90.624526
1205.000000, 90.613626
1204.000000, 90.590569
1203.000000, 90.592085
1202.000000, 90.616499
1201.000000, 90.573691
1200.000000, 90.556973
1199.000000, 90.606740
1198.000000, 90.596074
1197.000000, 90.613565
1196.000000, 90.611299
1195.000000, 90.599805
1194.000000, 90.604258
1193.000000, 90.570012
1192.000000, 90.578590
1191.000000, 90.599032
1190.000000, 90.581096
