nm, %T
1800.000000, 102.996300
1799.000000, 103.008800
1798.000000, 102.968200
1797.000000, 102.972100
1796.000000, 102.980500
1795.000000, 102.999400
1794.000000, 102.956200
1793.000000, 102.935400
1792.000000, 102.937900
1791.000000, 102.951500
1790.000000, 102.936500
1789.000000, 102.959800
1788.000000, 102.911700
1787.000000, 102.922800
1786.000000, 102.915700
1785.000000, 102.960400
1784.000000, 102.903100
1783.000000, 102.942700
1782.000000, 102.963800
1781.000000, 102.959800
1780.000000, 102.947100
1779.000000, 102.993700
1778.000000, 102.938400
1777.000000, 102.882800
1776.000000, 102.950000
1775.000000, 102.945100
1774.000000, 102.926600
1773.000000, 102.924000
1772.000000, 102.946900
1771.000000, 102.959400
1770.000000, 102.960100
1769.000000, 102.906800
1768.000000, 102.945700
1767.000000, 102.955600
1766.000000, 102.922800
1765.000000, 102.967300
1764.000000, 102.915600
1763.000000, 102.931900
1762.000000, 102.969100
1761.000000, 102.899000
1760.000000, 102.961700
1759.000000, 102.950400
1758.000000, 102.916600
1757.000000, 102.915600
1756.000000, 102.925100
1755.000000, 102.937800
1754.000000, 102.946500
1753.000000, 102.929000
1752.000000, 102.959800
1751.000000, 102.898600
1750.000000, 102.912700
1749.000000, 102.910800
1748.000000, 102.949100
1747.000000, 102.931000
1746.000000, 102.910800
1745.000000, 102.922000
1744.000000, 102.926800
1743.000000, 102.937200
1742.000000, 102.908400
1741.000000, 102.895800
1740.000000, 102.893700
1739.000000, 102.874800
1738.000000, 102.883400
1737.000000, 102.879200
1736.000000, 102.903200
1735.000000, 102.918000
1734.000000, 102.906600
1733.000000, 102.893900
1732.000000, 102.885900
1731.000000, 102.863300
1730.000000, 102.882900
1729.000000, 102.871600
1728.000000, 102.871800
1727.000000, 102.849100
1726.000000, 102.858700
1725.000000, 102.905800
1724.000000, 102.917500
1723.000000, 102.860800
1722.000000, 102.845800
1721.000000, 102.866300
1720.000000, 102.834500
1719.000000, 102.869100
1718.000000, 102.856200
1717.000000, 102.860900
1716.000000, 102.860300
1715.000000, 102.870400
1714.000000, 102.877400
1713.000000, 102.875600
1712.000000, 102.850400
1711.000000, 102.830300
1710.000000, 102.835700
1709.000000, 102.847500
1708.000000, 102.829000
1707.000000, 102.870900
1706.000000, 102.857300
1705.000000, 102.837500
1704.000000, 102.820800
1703.000000, 102.829200
1702.000000, 102.835000
1701.000000, 102.839500
1700.000000, 102.823900
1699.000000, 102.809700
1698.000000, 102.799100
1697.000000, 102.776300
1696.000000, 102.768600
1695.000000, 102.782100
1694.000000, 102.782900
1693.000000, 102.766800
1692.000000, 102.790200
1691.000000, 102.775100
1690.000000, 102.773600
1689.000000, 102.799300
1688.000000, 102.770000
1687.000000, 102.781000
1686.000000, 102.786700
1685.000000, 102.752900
1684.000000, 102.757000
1683.000000, 102.764700
1682.000000, 102.756800
1681.000000, 102.748000
1680.000000, 102.747400
1679.000000, 102.788500
1678.000000, 102.800200
1677.000000, 102.783900
1676.000000, 102.757300
1675.000000, 102.765000
1674.000000, 102.746300
1673.000000, 102.705300
1672.000000, 102.739300
1671.000000, 102.752800
1670.000000, 102.720300
1669.000000, 102.679300
1668.000000, 102.686600
1667.000000, 102.709500
1666.000000, 102.706700
1665.000000, 102.714500
1664.000000, 102.687500
1663.000000, 102.683900
1662.000000, 102.711100
1661.000000, 102.711000
1660.000000, 102.677100
1659.000000, 102.676700
1658.000000, 102.657800
1657.000000, 102.661000
1656.000000, 102.660600
1655.000000, 102.660500
1654.000000, 102.672200
1653.000000, 102.651600
1652.000000, 102.656000
1651.000000, 102.668700
1650.000000, 102.674600
1649.000000, 102.678400
1648.000000, 102.664200
1647.000000, 102.645500
1646.000000, 102.619900
1645.000000, 102.639000
1644.000000, 102.650800
1643.000000, 102.647900
1642.000000, 102.632700
1641.000000, 102.620900
1640.000000, 102.624800
1639.000000, 102.641100
1638.000000, 102.618900
1637.000000, 102.643100
1636.000000, 102.639200
1635.000000, 102.598600
1634.000000, 102.592000
1633.000000, 102.591800
1632.000000, 102.588100
1631.000000, 102.602300
1630.000000, 102.607400
1629.000000, 102.620300
1628.000000, 102.600500
1627.000000, 102.589500
1626.000000, 102.623000
1625.000000, 102.624000
1624.000000, 102.582800
1623.000000, 102.597400
1622.000000, 102.579100
1621.000000, 102.607100
1620.000000, 102.649500
1619.000000, 102.602000
1618.000000, 102.578100
1617.000000, 102.567500
1616.000000, 102.566200
1615.000000, 102.597500
1614.000000, 102.604600
1613.000000, 102.594600
1612.000000, 102.543100
1611.000000, 102.548900
1610.000000, 102.566400
1609.000000, 102.560900
1608.000000, 102.597400
1607.000000, 102.615700
1606.000000, 102.624700
1605.000000, 102.588800
1604.000000, 102.595600
1603.000000, 102.605900
1602.000000, 102.594500
1601.000000, 102.587400
1600.000000, 102.603300
1599.000000, 102.555700
1598.000000, 102.580000
1597.000000, 102.623600
1596.000000, 102.585600
1595.000000, 102.597100
1594.000000, 102.595700
1593.000000, 102.549000
1592.000000, 102.594800
1591.000000, 102.600100
1590.000000, 102.612400
1589.000000, 102.631600
1588.000000, 102.593200
1587.000000, 102.601200
1586.000000, 102.533400
1585.000000, 102.584400
1584.000000, 102.614500
1583.000000, 102.619000
1582.000000, 102.576400
1581.000000, 102.566500
1580.000000, 102.561500
1579.000000, 102.601000
1578.000000, 102.571700
1577.000000, 102.611900
1576.000000, 102.564600
1575.000000, 102.572600
1574.000000, 102.532200
1573.000000, 102.551000
1572.000000, 102.575600
1571.000000, 102.576100
1570.000000, 102.576900
1569.000000, 102.540800
1568.000000, 102.566800
1567.000000, 102.539700
1566.000000, 102.565400
1565.000000, 102.575100
1564.000000, 102.554600
1563.000000, 102.566700
1562.000000, 102.543500
1561.000000, 102.583100
1560.000000, 102.601800
1559.000000, 102.529800
1558.000000, 102.536900
1557.000000, 102.536800
1556.000000, 102.543600
1555.000000, 102.589300
1554.000000, 102.595600
1553.000000, 102.566300
1552.000000, 102.603500
1551.000000, 102.546300
1550.000000, 102.556500
1549.000000, 102.571800
1548.000000, 102.576800
1547.000000, 102.580700
1546.000000, 102.572300
1545.000000, 102.552000
1544.000000, 102.560100
1543.000000, 102.580100
1542.000000, 102.581500
1541.000000, 102.547000
1540.000000, 102.548400
1539.000000, 102.572200
1538.000000, 102.562700
1537.000000, 102.618900
1536.000000, 102.585000
1535.000000, 102.591900
1534.000000, 102.626600
1533.000000, 102.564100
1532.000000, 102.574900
1531.000000, 102.628200
1530.000000, 102.614600
1529.000000, 102.621600
1528.000000, 102.571500
1527.000000, 102.595700
1526.000000, 102.554600
1525.000000, 102.575600
1524.000000, 102.625300
1523.000000, 102.596800
1522.000000, 102.590700
1521.000000, 102.597700
1520.000000, 102.579100
1519.000000, 102.588600
1518.000000, 102.583300
1517.000000, 102.608500
1516.000000, 102.602900
1515.000000, 102.621800
1514.000000, 102.608200
1513.000000, 102.600900
1512.000000, 102.592400
1511.000000, 102.622400
1510.000000, 102.616500
1509.000000, 102.609300
1508.000000, 102.610900
1507.000000, 102.623000
1506.000000, 102.602900
1505.000000, 102.629100
1504.000000, 102.583000
1503.000000, 102.592400
1502.000000, 102.604800
1501.000000, 102.579700
1500.000000, 102.653100
1499.000000, 102.613600
1498.000000, 102.594300
1497.000000, 102.606300
1496.000000, 102.604100
1495.000000, 102.598700
1494.000000, 102.614400
1493.000000, 102.594500
1492.000000, 102.556000
1491.000000, 102.582900
1490.000000, 102.599200
1489.000000, 102.612200
1488.000000, 102.603400
1487.000000, 102.594100
1486.000000, 102.572900
1485.000000, 102.592900
1484.000000, 102.586400
1483.000000, 102.618600
1482.000000, 102.615200
1481.000000, 102.580400
1480.000000, 102.577500
1479.000000, 102.602000
1478.000000, 102.619600
1477.000000, 102.620700
1476.000000, 102.621000
1475.000000, 102.619200
1474.000000, 102.613200
1473.000000, 102.613300
1472.000000, 102.628200
1471.000000, 102.646400
1470.000000, 102.637800
1469.000000, 102.639400
1468.000000, 102.617800
1467.000000, 102.622600
1466.000000, 102.637700
1465.000000, 102.648400
1464.000000, 102.647200
1463.000000, 102.630600
1462.000000, 102.629400
1461.000000, 102.633700
1460.000000, 102.647000
1459.000000, 102.648100
1458.000000, 102.648200
1457.000000, 102.632500
1456.000000, 102.575100
1455.000000, 102.589400
1454.000000, 102.643700
1453.000000, 102.667500
1452.000000, 102.649000
1451.000000, 102.644000
1450.000000, 102.631900
1449.000000, 102.634400
1448.000000, 102.658100
1447.000000, 102.663500
1446.000000, 102.640600
1445.000000, 102.620400
1444.000000, 102.639000
1443.000000, 102.636100
1442.000000, 102.636800
1441.000000, 102.656300
1440.000000, 102.662300
1439.000000, 102.646200
1438.000000, 102.651200
1437.000000, 102.659700
1436.000000, 102.689700
1435.000000, 102.701700
1434.000000, 102.680300
1433.000000, 102.655300
1432.000000, 102.662900
1431.000000, 102.689700
1430.000000, 102.677300
1429.000000, 102.670100
1428.000000, 102.682100
1427.000000, 102.697300
1426.000000, 102.690900
1425.000000, 102.699100
1424.000000, 102.731500
1423.000000, 102.727700
1422.000000, 102.716300
1421.000000, 102.720500
1420.000000, 102.721200
1419.000000, 102.719700
1418.000000, 102.759300
1417.000000, 102.780400
1416.000000, 102.758500
1415.000000, 102.730300
1414.000000, 102.718900
1413.000000, 102.741600
1412.000000, 102.783000
1411.000000, 102.806000
1410.000000, 102.810700
1409.000000, 102.814200
1408.000000, 102.821900
1407.000000, 102.826600
1406.000000, 102.829100
1405.000000, 102.845300
1404.000000, 102.875800
1403.000000, 102.862700
1402.000000, 102.862100
1401.000000, 102.859000
1400.000000, 102.884300
1399.000000, 102.923100
1398.000000, 102.924200
1397.000000, 102.893000
1396.000000, 102.901900
1395.000000, 102.903200
1394.000000, 102.933900
1393.000000, 102.888600
1392.000000, 102.886600
1391.000000, 102.884000
1390.000000, 102.838400
1389.000000, 102.881300
1388.000000, 102.883200
1387.000000, 102.903000
1386.000000, 102.912300
1385.000000, 102.916600
1384.000000, 102.986100
1383.000000, 102.974200
1382.000000, 102.990800
1381.000000, 103.011900
1380.000000, 102.997900
1379.000000, 102.960400
1378.000000, 102.900400
1377.000000, 102.869300
1376.000000, 102.889500
1375.000000, 102.870700
1374.000000, 102.848500
1373.000000, 102.865800
1372.000000, 102.875200
1371.000000, 102.863600
1370.000000, 102.910700
1369.000000, 102.927400
1368.000000, 102.964300
1367.000000, 102.964600
1366.000000, 102.969900
1365.000000, 103.058000
1364.000000, 103.064900
1363.000000, 103.038000
1362.000000, 103.052000
1361.000000, 103.064700
1360.000000, 103.057300
1359.000000, 103.058500
1358.000000, 103.089300
1357.000000, 103.002900
1356.000000, 102.952100
1355.000000, 102.920400
1354.000000, 103.010300
1353.000000, 102.954700
1352.000000, 102.900100
1351.000000, 102.872300
1350.000000, 102.888900
1349.000000, 102.919800
1348.000000, 102.888400
1347.000000, 102.855000
1346.000000, 102.866200
1345.000000, 102.883400
1344.000000, 102.859600
1343.000000, 102.816700
1342.000000, 102.879800
1341.000000, 102.846500
1340.000000, 102.807800
1339.000000, 102.793200
1338.000000, 102.837900
1337.000000, 102.800200
1336.000000, 102.825800
1335.000000, 102.839000
1334.000000, 102.864600
1333.000000, 102.821700
1332.000000, 102.829700
1331.000000, 102.879900
1330.000000, 102.854500
1329.000000, 102.850900
1328.000000, 102.855400
1327.000000, 102.875500
1326.000000, 102.842300
1325.000000, 102.889400
1324.000000, 102.867200
1323.000000, 102.884500
1322.000000, 102.872200
1321.000000, 102.906800
1320.000000, 102.889000
1319.000000, 102.930400
1318.000000, 102.970800
1317.000000, 102.925600
1316.000000, 102.920300
1315.000000, 102.969900
1314.000000, 102.959100
1313.000000, 102.969800
1312.000000, 102.966300
1311.000000, 102.974000
1310.000000, 102.954200
1309.000000, 102.969900
1308.000000, 103.028600
1307.000000, 102.988100
1306.000000, 103.016400
1305.000000, 102.997400
1304.000000, 103.016900
1303.000000, 103.026900
1302.000000, 103.021500
1301.000000, 103.036500
1300.000000, 103.079400
1299.000000, 103.002500
1298.000000, 103.031700
1297.000000, 103.024300
1296.000000, 103.070700
1295.000000, 103.010000
1294.000000, 103.066000
1293.000000, 103.093900
1292.000000, 102.994700
1291.000000, 103.048300
1290.000000, 103.071200
1289.000000, 103.080800
1288.000000, 103.064700
1287.000000, 103.048100
1286.000000, 103.065600
1285.000000, 103.065100
1284.000000, 103.084300
1283.000000, 103.068400
1282.000000, 103.042000
1281.000000, 103.067800
1280.000000, 103.090800
1279.000000, 103.079900
1278.000000, 103.116000
1277.000000, 103.124200
1276.000000, 103.114300
1275.000000, 103.120500
1274.000000, 103.130100
1273.000000, 103.128300
1272.000000, 103.118500
1271.000000, 103.160900
1270.000000, 103.190400
1269.000000, 103.164100
1268.000000, 103.159100
1267.000000, 103.181100
1266.000000, 103.147200
1265.000000, 103.186200
1264.000000, 103.200600
1263.000000, 103.224300
1262.000000, 103.191100
1261.000000, 103.204500
1260.000000, 103.232800
1259.000000, 103.248500
1258.000000, 103.247500
1257.000000, 103.208500
1256.000000, 103.210100
1255.000000, 103.260000
1254.000000, 103.260700
1253.000000, 103.282100
1252.000000, 103.249000
1251.000000, 103.244800
1250.000000, 103.271900
1249.000000, 103.252200
1248.000000, 103.268000
1247.000000, 103.279200
1246.000000, 103.267000
1245.000000, 103.265300
1244.000000, 103.243000
1243.000000, 103.265300
1242.000000, 103.298700
1241.000000, 103.321300
1240.000000, 103.309100
1239.000000, 103.309700
1238.000000, 103.318100
1237.000000, 103.328200
1236.000000, 103.332700
1235.000000, 103.382200
1234.000000, 103.367900
1233.000000, 103.351500
1232.000000, 103.355000
1231.000000, 103.400100
1230.000000, 103.409600
1229.000000, 103.433600
1228.000000, 103.478300
1227.000000, 103.410300
1226.000000, 103.442400
1225.000000, 103.477700
1224.000000, 103.481300
1223.000000, 103.508500
1222.000000, 103.519800
1221.000000, 103.513600
1220.000000, 103.532100
1219.000000, 103.532300
1218.000000, 103.542600
1217.000000, 103.564300
1216.000000, 103.551000
1215.000000, 103.534300
1214.000000, 103.531700
1213.000000, 103.519900
1212.000000, 103.526600
1211.000000, 103.559100
1210.000000, 103.544700
1209.000000, 103.559100
1208.000000, 103.560000
1207.000000, 103.579500
1206.000000, 103.585900
1205.000000, 103.610700
1204.000000, 103.618500
1203.000000, 103.615600
1202.000000, 103.602700
1201.000000, 103.600100
1200.000000, 103.594900
1199.000000, 103.619200
1198.000000, 103.631000
1197.000000, 103.625500
1196.000000, 103.640800
1195.000000, 103.658400
1194.000000, 103.681400
1193.000000, 103.689300
1192.000000, 103.691900
1191.000000, 103.689600
1190.000000, 103.685300
1189.000000, 103.726400
1188.000000, 103.784400
1187.000000, 103.793500
1186.000000, 103.786200
1185.000000, 103.800700
1184.000000, 103.826000
1183.000000, 103.818600
1182.000000, 103.852900
1181.000000, 103.873100
1180.000000, 103.833700
1179.000000, 103.854600
1178.000000, 103.906900
1177.000000, 103.907900
1176.000000, 103.872000
1175.000000, 103.871100
1174.000000, 103.881100
1173.000000, 103.885700
1172.000000, 103.904200
1171.000000, 103.932700
1170.000000, 103.937000
1169.000000, 103.952000
1168.000000, 103.953900
1167.000000, 103.962000
1166.000000, 103.974900
1165.000000, 103.992400
1164.000000, 103.998800
1163.000000, 104.014300
1162.000000, 104.012100
1161.000000, 104.047200
1160.000000, 104.056200
1159.000000, 104.058200
1158.000000, 104.080400
1157.000000, 104.088600
1156.000000, 104.069600
1155.000000, 104.103100
1154.000000, 104.112000
1153.000000, 104.157800
1152.000000, 104.137900
1151.000000, 104.120700
1150.000000, 104.135200
1149.000000, 104.195100
1148.000000, 104.210600
1147.000000, 104.205000
1146.000000, 104.225400
1145.000000, 104.212900
1144.000000, 104.213100
1143.000000, 104.268300
1142.000000, 104.278400
1141.000000, 104.287200
1140.000000, 104.323900
1139.000000, 104.327800
1138.000000, 104.312800
1137.000000, 104.317600
1136.000000, 104.357900
1135.000000, 104.380900
1134.000000, 104.380700
1133.000000, 104.387300
1132.000000, 104.382700
1131.000000, 104.418400
1130.000000, 104.394800
1129.000000, 104.418800
1128.000000, 104.464400
1127.000000, 104.474700
1126.000000, 104.452600
1125.000000, 104.466400
1124.000000, 104.508600
1123.000000, 104.540600
1122.000000, 104.571700
1121.000000, 104.569900
1120.000000, 104.567000
1119.000000, 104.612400
1118.000000, 104.592600
1117.000000, 104.634400
1116.000000, 104.604900
1115.000000, 104.605300
1114.000000, 104.639800
1113.000000, 104.671000
1112.000000, 104.679100
1111.000000, 104.670400
1110.000000, 104.727000
1109.000000, 104.709500
1108.000000, 104.696200
1107.000000, 104.711100
1106.000000, 104.687700
1105.000000, 104.734300
1104.000000, 104.772900
1103.000000, 104.789800
1102.000000, 104.784600
1101.000000, 104.844600
1100.000000, 104.872600
1099.000000, 104.858100
1098.000000, 104.868300
1097.000000, 104.876100
1096.000000, 104.861400
1095.000000, 104.892800
1094.000000, 104.924600
1093.000000, 104.957500
1092.000000, 104.945500
1091.000000, 104.977500
1090.000000, 104.989000
1089.000000, 105.006000
1088.000000, 105.056600
1087.000000, 105.078700
1086.000000, 105.057900
1085.000000, 105.068500
1084.000000, 105.092900
1083.000000, 105.136300
1082.000000, 105.127400
1081.000000, 105.144100
1080.000000, 105.158900
1079.000000, 105.178400
1078.000000, 105.267000
1077.000000, 105.206300
1076.000000, 105.262300
1075.000000, 105.233400
1074.000000, 105.286000
1073.000000, 105.332300
1072.000000, 105.297600
1071.000000, 105.360700
1070.000000, 105.383400
1069.000000, 105.416800
1068.000000, 105.405800
1067.000000, 105.450000
1066.000000, 105.452000
1065.000000, 105.466800
1064.000000, 105.495600
1063.000000, 105.509900
1062.000000, 105.577100
1061.000000, 105.600500
1060.000000, 105.599300
1059.000000, 105.619600
1058.000000, 105.669200
1057.000000, 105.724400
1056.000000, 105.684800
1055.000000, 105.748700
1054.000000, 105.693800
1053.000000, 105.725800
1052.000000, 105.816000
1051.000000, 105.847400
1050.000000, 105.836400
1049.000000, 105.849700
1048.000000, 105.915400
1047.000000, 105.878100
1046.000000, 105.922100
1045.000000, 105.984300
1044.000000, 106.008200
1043.000000, 105.998000
1042.000000, 106.043400
1041.000000, 106.116700
1040.000000, 106.112500
1039.000000, 106.154900
1038.000000, 106.161800
1037.000000, 106.195500
1036.000000, 106.198700
1035.000000, 106.249700
1034.000000, 106.302500
1033.000000, 106.317200
1032.000000, 106.342700
1031.000000, 106.348700
1030.000000, 106.434700
1029.000000, 106.432200
1028.000000, 106.475900
1027.000000, 106.492600
1026.000000, 106.503700
1025.000000, 106.533300
1024.000000, 106.619900
1023.000000, 106.645500
1022.000000, 106.621300
1021.000000, 106.701400
1020.000000, 106.726600
1019.000000, 106.697700
1018.000000, 106.788200
1017.000000, 106.866200
1016.000000, 106.864300
1015.000000, 106.846500
1014.000000, 106.872800
1013.000000, 106.945700
1012.000000, 106.974600
1011.000000, 107.050400
1010.000000, 107.079200
1009.000000, 107.098300
1008.000000, 107.159000
1007.000000, 107.201900
1006.000000, 107.231000
1005.000000, 107.268400
1004.000000, 107.319400
1003.000000, 107.359500
1002.000000, 107.354500
1001.000000, 107.433500
1000.000000, 107.484700
999.000000, 107.548900
998.000000, 107.543400
997.000000, 107.589400
996.000000, 107.650300
995.000000, 107.705000
994.000000, 107.729100
993.000000, 107.783500
992.000000, 107.834200
991.000000, 107.878800
990.000000, 107.892300
989.000000, 107.949100
988.000000, 107.974700
987.000000, 108.051100
986.000000, 108.094000
985.000000, 108.143100
984.000000, 108.186400
983.000000, 108.256800
982.000000, 108.302100
981.000000, 108.320700
980.000000, 108.378600
979.000000, 108.424200
978.000000, 108.471600
977.000000, 108.514800
976.000000, 108.573000
975.000000, 108.644300
974.000000, 108.663600
973.000000, 108.733000
972.000000, 108.812100
971.000000, 108.867100
970.000000, 108.935100
969.000000, 109.004600
968.000000, 109.026300
967.000000, 109.070800
966.000000, 109.174600
965.000000, 109.257300
964.000000, 109.290700
963.000000, 109.344500
962.000000, 109.429700
961.000000, 109.505300
960.000000, 109.551900
959.000000, 109.615700
958.000000, 109.672500
957.000000, 109.734700
956.000000, 109.775200
955.000000, 109.835300
954.000000, 109.951000
953.000000, 110.040900
952.000000, 110.069200
951.000000, 110.125800
950.000000, 110.225400
949.000000, 110.303400
948.000000, 110.369800
947.000000, 110.461700
946.000000, 110.523300
945.000000, 110.579500
944.000000, 110.661100
943.000000, 110.785800
942.000000, 110.864800
941.000000, 110.921100
940.000000, 110.979900
939.000000, 111.079500
938.000000, 111.199300
937.000000, 111.276600
936.000000, 111.361000
935.000000, 111.453900
934.000000, 111.539800
933.000000, 111.654900
932.000000, 111.719800
931.000000, 111.797400
930.000000, 111.905500
929.000000, 111.990600
928.000000, 112.116600
927.000000, 112.234700
926.000000, 112.273200
925.000000, 112.380000
924.000000, 112.540600
923.000000, 112.635400
922.000000, 112.731600
921.000000, 112.864600
920.000000, 112.965000
919.000000, 113.014800
918.000000, 113.152700
917.000000, 113.295300
916.000000, 113.417700
915.000000, 113.500000
914.000000, 113.630100
913.000000, 113.768400
912.000000, 113.895000
911.000000, 114.006600
910.000000, 114.155400
909.000000, 114.249900
908.000000, 114.383100
907.000000, 114.529100
906.000000, 114.647900
905.000000, 114.760700
904.000000, 114.910500
903.000000, 115.037300
902.000000, 115.184700
901.000000, 115.304500
900.000000, 115.450000
