nm, %T
1800.000000, 91.704459
1799.000000, 91.664984
1798.000000, 91.735992
1797.000000, 91.743492
1796.000000, 91.716004
1795.000000, 91.679563
1794.000000, 91.728036
1793.000000, 91.697511
1792.000000, 91.742691
1791.000000, 91.693176
1790.000000, 91.717904
1789.000000, 91.705112
1788.000000, 91.727957
1787.000000, 91.732347
1786.000000, 91.723323
1785.000000, 91.724197
1784.000000, 91.751560
1783.000000, 91.726757
1782.000000, 91.697470
1781.000000, 91.704918
1780.000000, 91.713803
1779.000000, 91.696482
1778.000000, 91.725245
1777.000000, 91.724175
1776.000000, 91.654104
1775.000000, 91.705385
1774.000000, 91.717690
1773.000000, 91.669193
1772.000000, 91.681440
1771.000000, 91.635344
1770.000000, 91.608885
1769.000000, 91.742528
1768.000000, 91.697371
1767.000000, 91.632315
1766.000000, 91.677937
1765.000000, 91.629090
1764.000000, 91.659962
1763.000000, 91.655940
1762.000000, 91.617388
1761.000000, 91.645886
1760.000000, 91.616591
1759.000000, 91.642092
1758.000000, 91.699784
1757.000000, 91.676966
1756.000000, 91.689296
1755.000000, 91.629217
1754.000000, 91.643038
1753.000000, 91.664060
1752.000000, 91.648391
1751.000000, 91.695611
1750.000000, 91.674788
1749.000000, 91.642277
1748.000000, 91.649368
1747.000000, 91.687733
1746.000000, 91.657630
1745.000000, 91.631721
1744.000000, 91.660384
1743.000000, 91.624894
1742.000000, 91.656561
1741.000000, 91.693053
1740.000000, 91.708239
1739.000000, 91.672402
1738.000000, 91.675917
1737.000000, 91.674702
1736.000000, 91.667217
1735.000000, 91.638100
1734.000000, 91.657289
1733.000000, 91.672684
1732.000000, 91.658818
1731.000000, 91.682942
1730.000000, 91.669267
1729.000000, 91.678364
1728.000000, 91.679450
1727.000000, 91.689378
1726.000000, 91.672848
1725.000000, 91.635943
1724.000000, 91.624165
1723.000000, 91.689934
1722.000000, 91.713614
1721.000000, 91.666075
1720.000000, 91.692768
1719.000000, 91.661539
1718.000000, 91.694521
1717.000000, 91.671374
1716.000000, 91.674922
1715.000000, 91.644146
1714.000000, 91.633051
1713.000000, 91.686950
1712.000000, 91.689775
1711.000000, 91.702446
1710.000000, 91.696852
1709.000000, 91.671358
1708.000000, 91.681919
1707.000000, 91.637771
1706.000000, 91.650277
1705.000000, 91.669770
1704.000000, 91.666472
1703.000000, 91.640312
1702.000000, 91.641951
1701.000000, 91.657388
1700.000000, 91.673434
1699.000000, 91.652247
1698.000000, 91.658682
1697.000000, 91.700908
1696.000000, 91.691236
1695.000000, 91.681042
1694.000000, 91.692295
1693.000000, 91.676106
1692.000000, 91.654263
1691.000000, 91.674443
1690.000000, 91.666148
1689.000000, 91.657044
1688.000000, 91.693685
1687.000000, 91.641451
1686.000000, 91.597259
1685.000000, 91.657462
1684.000000, 91.665093
1683.000000, 91.654917
1682.000000, 91.693494
1681.000000, 91.692296
1680.000000, 91.684072
1679.000000, 91.668426
1678.000000, 91.643110
1677.000000, 91.641103
1676.000000, 91.683608
1675.000000, 91.689194
1674.000000, 91.680868
1673.000000, 91.717857
1672.000000, 91.706776
1671.000000, 91.681492
1670.000000, 91.682267
1669.000000, 91.688588
1668.000000, 91.663080
1667.000000, 91.635340
1666.000000, 91.620508
1665.000000, 91.636819
1664.000000, 91.702690
1663.000000, 91.698309
1662.000000, 91.647154
1661.000000, 91.642959
1660.000000, 91.652764
1659.000000, 91.694416
1658.000000, 91.716070
1657.000000, 91.689346
1656.000000, 91.688730
1655.000000, 91.673721
1654.000000, 91.642528
1653.000000, 91.663062
1652.000000, 91.655042
1651.000000, 91.642049
1650.000000, 91.612336
1649.000000, 91.633976
1648.000000, 91.641780
1647.000000, 91.656137
1646.000000, 91.669355
1645.000000, 91.673925
1644.000000, 91.661926
1643.000000, 91.656624
1642.000000, 91.685106
1641.000000, 91.696818
1640.000000, 91.653382
1639.000000, 91.677798
1638.000000, 91.687496
1637.000000, 91.667438
1636.000000, 91.670142
1635.000000, 91.713825
1634.000000, 91.701595
1633.000000, 91.691344
1632.000000, 91.690557
1631.000000, 91.677867
1630.000000, 91.719603
1629.000000, 91.680106
1628.000000, 91.667390
1627.000000, 91.677608
1626.000000, 91.688900
1625.000000, 91.690053
1624.000000, 91.690225
1623.000000, 91.667820
1622.000000, 91.700649
1621.000000, 91.675625
1620.000000, 91.635030
1619.000000, 91.696068
1618.000000, 91.678341
1617.000000, 91.679041
1616.000000, 91.662166
1615.000000, 91.624065
1614.000000, 91.651836
1613.000000, 91.699076
1612.000000, 91.712070
1611.000000, 91.712832
1610.000000, 91.697281
1609.000000, 91.676750
1608.000000, 91.659730
1607.000000, 91.643774
1606.000000, 91.645481
1605.000000, 91.703773
1604.000000, 91.689800
1603.000000, 91.665781
1602.000000, 91.672653
1601.000000, 91.715454
1600.000000, 91.650463
1599.000000, 91.704995
1598.000000, 91.672158
1597.000000, 91.682712
1596.000000, 91.699615
1595.000000, 91.669258
1594.000000, 91.660859
1593.000000, 91.724444
1592.000000, 91.682132
1591.000000, 91.699618
1590.000000, 91.653250
1589.000000, 91.657735
1588.000000, 91.677714
1587.000000, 91.671053
1586.000000, 91.723868
1585.000000, 91.700492
1584.000000, 91.639583
1583.000000, 91.629913
1582.000000, 91.672548
1581.000000, 91.717374
1580.000000, 91.698932
1579.000000, 91.680296
1578.000000, 91.630342
1577.000000, 91.615300
1576.000000, 91.625181
1575.000000, 91.648549
1574.000000, 91.670129
1573.000000, 91.703055
1572.000000, 91.630271
1571.000000, 91.645325
1570.000000, 91.637006
1569.000000, 91.689064
1568.000000, 91.636865
1567.000000, 91.676882
1566.000000, 91.646013
1565.000000, 91.650313
1564.000000, 91.631872
1563.000000, 91.690188
1562.000000, 91.690258
1561.000000, 91.639656
1560.000000, 91.617496
1559.000000, 91.688660
1558.000000, 91.694600
1557.000000, 91.682888
1556.000000, 91.685976
1555.000000, 91.630999
1554.000000, 91.628101
1553.000000, 91.660321
1552.000000, 91.588299
1551.000000, 91.636071
1550.000000, 91.635245
1549.000000, 91.631326
1548.000000, 91.669364
1547.000000, 91.618111
1546.000000, 91.651547
1545.000000, 91.711327
1544.000000, 91.637294
1543.000000, 91.614065
1542.000000, 91.626073
1541.000000, 91.661970
1540.000000, 91.671932
1539.000000, 91.659826
1538.000000, 91.609230
1537.000000, 91.610220
1536.000000, 91.632890
1535.000000, 91.618247
1534.000000, 91.559693
1533.000000, 91.639862
1532.000000, 91.618710
1531.000000, 91.580872
1530.000000, 91.598661
1529.000000, 91.604886
1528.000000, 91.650995
1527.000000, 91.606276
1526.000000, 91.681602
1525.000000, 91.644504
1524.000000, 91.621754
1523.000000, 91.674009
1522.000000, 91.668738
1521.000000, 91.662094
1520.000000, 91.689828
1519.000000, 91.667300
1518.000000, 91.672816
1517.000000, 91.659268
1516.000000, 91.665440
1515.000000, 91.663662
1514.000000, 91.672595
1513.000000, 91.645492
1512.000000, 91.656594
1511.000000, 91.656305
1510.000000, 91.639551
1509.000000, 91.657286
1508.000000, 91.628765
1507.000000, 91.661518
1506.000000, 91.643219
1505.000000, 91.616900
1504.000000, 91.672987
1503.000000, 91.664392
1502.000000, 91.629144
1501.000000, 91.654099
1500.000000, 91.585739
1499.000000, 91.595461
1498.000000, 91.631601
1497.000000, 91.619228
1496.000000, 91.616807
1495.000000, 91.636444
1494.000000, 91.616576
1493.000000, 91.619726
1492.000000, 91.668162
1491.000000, 91.640030
1490.000000, 91.612313
1489.000000, 91.602948
1488.000000, 91.604372
1487.000000, 91.621058
1486.000000, 91.656373
1485.000000, 91.645036
1484.000000, 91.614873
1483.000000, 91.592362
1482.000000, 91.609625
1481.000000, 91.661175
1480.000000, 91.655285
1479.000000, 91.629208
1478.000000, 91.612811
1477.000000, 91.608223
1476.000000, 91.605422
1475.000000, 91.582374
1474.000000, 91.610339
1473.000000, 91.638706
1472.000000, 91.635730
1471.000000, 91.618410
1470.000000, 91.620923
1469.000000, 91.597963
1468.000000, 91.626696
1467.000000, 91.648916
1466.000000, 91.624033
1465.000000, 91.609319
1464.000000, 91.617209
1463.000000, 91.619166
1462.000000, 91.621796
1461.000000, 91.601297
1460.000000, 91.582024
1459.000000, 91.583478
1458.000000, 91.590111
1457.000000, 91.632670
1456.000000, 91.667568
1455.000000, 91.638512
1454.000000, 91.592372
1453.000000, 91.562471
1452.000000, 91.618623
1451.000000, 91.622306
1450.000000, 91.603001
1449.000000, 91.595313
1448.000000, 91.557218
1447.000000, 91.541395
1446.000000, 91.584032
1445.000000, 91.618041
1444.000000, 91.580686
1443.000000, 91.567977
1442.000000, 91.570762
1441.000000, 91.577624
1440.000000, 91.589512
1439.000000, 91.583712
1438.000000, 91.564249
1437.000000, 91.575954
1436.000000, 91.524077
1435.000000, 91.526333
1434.000000, 91.555147
1433.000000, 91.556208
1432.000000, 91.531897
1431.000000, 91.501192
1430.000000, 91.529384
1429.000000, 91.520803
1428.000000, 91.511179
1427.000000, 91.510293
1426.000000, 91.507816
1425.000000, 91.496225
1424.000000, 91.474280
1423.000000, 91.466859
1422.000000, 91.489277
1421.000000, 91.469960
1420.000000, 91.455123
1419.000000, 91.448184
1418.000000, 91.399416
1417.000000, 91.383668
1416.000000, 91.391661
1415.000000, 91.393386
1414.000000, 91.382696
1413.000000, 91.386741
1412.000000, 91.353045
1411.000000, 91.318406
1410.000000, 91.311118
1409.000000, 91.279220
1408.000000, 91.263729
1407.000000, 91.264809
1406.000000, 91.230887
1405.000000, 91.218558
1404.000000, 91.168671
1403.000000, 91.118841
1402.000000, 91.114706
1401.000000, 91.075550
1400.000000, 91.029827
1399.000000, 90.938672
1398.000000, 90.915645
1397.000000, 90.875959
1396.000000, 90.836515
1395.000000, 90.803493
1394.000000, 90.729196
1393.000000, 90.704995
1392.000000, 90.605871
1391.000000, 90.577738
1390.000000, 90.558099
1389.000000, 90.501870
1388.000000, 90.435270
1387.000000, 90.379386
1386.000000, 90.376175
1385.000000, 90.398439
1384.000000, 90.306168
1383.000000, 90.356419
1382.000000, 90.360498
1381.000000, 90.325098
1380.000000, 90.414853
1379.000000, 90.476436
1378.000000, 90.569716
1377.000000, 90.636371
1376.000000, 90.698468
1375.000000, 90.813128
1374.000000, 90.930738
1373.000000, 91.003035
1372.000000, 91.076178
1371.000000, 91.171318
1370.000000, 91.211798
1369.000000, 91.305619
1368.000000, 91.355645
1367.000000, 91.399374
1366.000000, 91.414676
1365.000000, 91.336723
1364.000000, 91.416088
1363.000000, 91.491489
1362.000000, 91.463630
1361.000000, 91.494760
1360.000000, 91.487939
1359.000000, 91.474066
1358.000000, 91.506199
1357.000000, 91.493249
1356.000000, 91.538104
1355.000000, 91.534040
1354.000000, 91.447069
1353.000000, 91.546379
1352.000000, 91.563274
1351.000000, 91.563521
1350.000000, 91.541070
1349.000000, 91.488713
1348.000000, 91.603427
1347.000000, 91.567352
1346.000000, 91.544161
1345.000000, 91.514861
1344.000000, 91.568993
1343.000000, 91.607978
1342.000000, 91.520007
1341.000000, 91.581434
1340.000000, 91.592175
1339.000000, 91.570260
1338.000000, 91.545432
1337.000000, 91.613051
1336.000000, 91.605900
1335.000000, 91.600949
1334.000000, 91.583110
1333.000000, 91.574541
1332.000000, 91.630434
1331.000000, 91.565408
1330.000000, 91.602020
1329.000000, 91.578197
1328.000000, 91.614150
1327.000000, 91.614330
1326.000000, 91.643322
1325.000000, 91.602925
1324.000000, 91.666731
1323.000000, 91.595721
1322.000000, 91.605118
1321.000000, 91.615131
1320.000000, 91.619998
1319.000000, 91.607144
1318.000000, 91.586450
1317.000000, 91.623950
1316.000000, 91.604183
1315.000000, 91.590941
1314.000000, 91.598411
1313.000000, 91.614920
1312.000000, 91.642314
1311.000000, 91.616525
1310.000000, 91.653667
1309.000000, 91.682424
1308.000000, 91.600002
1307.000000, 91.598058
1306.000000, 91.587844
1305.000000, 91.637168
1304.000000, 91.610503
1303.000000, 91.650239
1302.000000, 91.610101
1301.000000, 91.626365
1300.000000, 91.531383
1299.000000, 91.631659
1298.000000, 91.603846
1297.000000, 91.614406
1296.000000, 91.594313
1295.000000, 91.599262
1294.000000, 91.582869
1293.000000, 91.547803
1292.000000, 91.688310
1291.000000, 91.642657
1290.000000, 91.622199
1289.000000, 91.602995
1288.000000, 91.589264
1287.000000, 91.645940
1286.000000, 91.645612
1285.000000, 91.620927
1284.000000, 91.619480
1283.000000, 91.607127
1282.000000, 91.639623
1281.000000, 91.631043
1280.000000, 91.656966
1279.000000, 91.611653
1278.000000, 91.596551
1277.000000, 91.596153
1276.000000, 91.594861
1275.000000, 91.604773
1274.000000, 91.623881
1273.000000, 91.653019
1272.000000, 91.593846
1271.000000, 91.585281
1270.000000, 91.616759
1269.000000, 91.610551
1268.000000, 91.612858
1267.000000, 91.618426
1266.000000, 91.618774
1265.000000, 91.616805
1264.000000, 91.597142
1263.000000, 91.548211
1262.000000, 91.608482
1261.000000, 91.582150
1260.000000, 91.565471
1259.000000, 91.566754
1258.000000, 91.562798
1257.000000, 91.574822
1256.000000, 91.585998
1255.000000, 91.554135
1254.000000, 91.528820
1253.000000, 91.497849
1252.000000, 91.578127
1251.000000, 91.549502
1250.000000, 91.515020
1249.000000, 91.513885
1248.000000, 91.540555
1247.000000, 91.541085
1246.000000, 91.568458
1245.000000, 91.576164
1244.000000, 91.609019
1243.000000, 91.605312
1242.000000, 91.537938
1241.000000, 91.521013
1240.000000, 91.589899
1239.000000, 91.584527
1238.000000, 91.583953
1237.000000, 91.572194
1236.000000, 91.568884
1235.000000, 91.542548
1234.000000, 91.584622
1233.000000, 91.620828
1232.000000, 91.600697
1231.000000, 91.583954
1230.000000, 91.607936
1229.000000, 91.591610
1228.000000, 91.543348
1227.000000, 91.621628
1226.000000, 91.597546
1225.000000, 91.559341
1224.000000, 91.575579
1223.000000, 91.587841
1222.000000, 91.567507
1221.000000, 91.548164
1220.000000, 91.564742
1219.000000, 91.578763
1218.000000, 91.587810
1217.000000, 91.539652
1216.000000, 91.556431
1215.000000, 91.588585
1214.000000, 91.603828
1213.000000, 91.625861
1212.000000, 91.626210
1211.000000, 91.585578
1210.000000, 91.592810
1209.000000, 91.600255
1208.000000, 91.628718
1207.000000, 91.583856
1206.000000, 91.574143
1205.000000, 91.565543
1204.000000, 91.553439
1203.000000, 91.563143
1202.000000, 91.610547
1201.000000, 91.628483
1200.000000, 91.624491
1199.000000, 91.615067
1198.000000, 91.596916
1197.000000, 91.598111
1196.000000, 91.594526
1195.000000, 91.596532
1194.000000, 91.591549
1193.000000, 91.578495
1192.000000, 91.567905
1191.000000, 91.563474
1190.000000, 91.607875
1189.000000, 91.625469
1188.000000, 91.555378
1187.000000, 91.551783
1186.000000, 91.608422
1185.000000, 91.611425
1184.000000, 91.607882
1183.000000, 91.616435
1182.000000, 91.574044
1181.000000, 91.568847
1180.000000, 91.616402
1179.000000, 91.576396
1178.000000, 91.516059
1177.000000, 91.548766
1176.000000, 91.606111
1175.000000, 91.604017
1174.000000, 91.586728
1173.000000, 91.581421
1172.000000, 91.594757
1171.000000, 91.587537
1170.000000, 91.575955
1169.000000, 91.582365
1168.000000, 91.582807
1167.000000, 91.542679
1166.000000, 91.540747
1165.000000, 91.571403
1164.000000, 91.591057
1163.000000, 91.584715
1162.000000, 91.572904
1161.000000, 91.525385
1160.000000, 91.554372
1159.000000, 91.589803
1158.000000, 91.576896
1157.000000, 91.571699
1156.000000, 91.591108
1155.000000, 91.571336
1154.000000, 91.568215
1153.000000, 91.549937
1152.000000, 91.593166
1151.000000, 91.614540
1150.000000, 91.606585
1149.000000, 91.574748
1148.000000, 91.560168
1147.000000, 91.581882
1146.000000, 91.577581
1145.000000, 91.582712
1144.000000, 91.592132
1143.000000, 91.576539
1142.000000, 91.563545
1141.000000, 91.559463
1140.000000, 91.531375
1139.000000, 91.536580
1138.000000, 91.545525
1137.000000, 91.589243
1136.000000, 91.577734
1135.000000, 91.562154
1134.000000, 91.547384
1133.000000, 91.562288
1132.000000, 91.560575
1131.000000, 91.570643
1130.000000, 91.577933
1129.000000, 91.546733
1128.000000, 91.548221
1127.000000, 91.521967
1126.000000, 91.560095
1125.000000, 91.588396
1124.000000, 91.555049
1123.000000, 91.528459
1122.000000, 91.517112
1121.000000, 91.577500
1120.000000, 91.559000
1119.000000, 91.540869
1118.000000, 91.575695
1117.000000, 91.504132
1116.000000, 91.576590
1115.000000, 91.569070
1114.000000, 91.546142
1113.000000, 91.545605
1112.000000, 91.546450
1111.000000, 91.552626
1110.000000, 91.509544
1109.000000, 91.559887
1108.000000, 91.591194
1107.000000, 91.566128
1106.000000, 91.581150
1105.000000, 91.549760
1104.000000, 91.531493
1103.000000, 91.500509
1102.000000, 91.504095
1101.000000, 91.508766
1100.000000, 91.514085
1099.000000, 91.524641
1098.000000, 91.500101
1097.000000, 91.565857
1096.000000, 91.565152
1095.000000, 91.532307
1094.000000, 91.533539
1093.000000, 91.521235
1092.000000, 91.521313
1091.000000, 91.540473
1090.000000, 91.540923
1089.000000, 91.503057
1088.000000, 91.530185
1087.000000, 91.472011
1086.000000, 91.542664
1085.000000, 91.584252
1084.000000, 91.540532
1083.000000, 91.528806
1082.000000, 91.534938
1081.000000, 91.579271
1080.000000, 91.565906
1079.000000, 91.545127
1078.000000, 91.543599
1077.000000, 91.574269
1076.000000, 91.504936
1075.000000, 91.560759
1074.000000, 91.538856
1073.000000, 91.538873
1072.000000, 91.576066
1071.000000, 91.551499
1070.000000, 91.542501
1069.000000, 91.510366
1068.000000, 91.549706
1067.000000, 91.533523
1066.000000, 91.542598
1065.000000, 91.537337
1064.000000, 91.537088
1063.000000, 91.505536
1062.000000, 91.514732
1061.000000, 91.489624
1060.000000, 91.567842
1059.000000, 91.502619
1058.000000, 91.512948
1057.000000, 91.500921
1056.000000, 91.512498
1055.000000, 91.479990
1054.000000, 91.543686
1053.000000, 91.545488
1052.000000, 91.493914
1051.000000, 91.473007
1050.000000, 91.517096
1049.000000, 91.541969
1048.000000, 91.498498
1047.000000, 91.525915
1046.000000, 91.530946
1045.000000, 91.534784
1044.000000, 91.506883
1043.000000, 91.504745
1042.000000, 91.505082
1041.000000, 91.512834
1040.000000, 91.491483
1039.000000, 91.521917
1038.000000, 91.487333
1037.000000, 91.514141
1036.000000, 91.525791
1035.000000, 91.499364
1034.000000, 91.486089
1033.000000, 91.470994
1032.000000, 91.522690
1031.000000, 91.544325
1030.000000, 91.487457
1029.000000, 91.482747
1028.000000, 91.473657
1027.000000, 91.484197
1026.000000, 91.510999
1025.000000, 91.517770
1024.000000, 91.473262
1023.000000, 91.488061
1022.000000, 91.532086
1021.000000, 91.503954
1020.000000, 91.445806
1019.000000, 91.532995
1018.000000, 91.492131
1017.000000, 91.461379
1016.000000, 91.462443
1015.000000, 91.517177
1014.000000, 91.502983
1013.000000, 91.485025
1012.000000, 91.515276
1011.000000, 91.473362
1010.000000, 91.422984
1009.000000, 91.461489
1008.000000, 91.453074
1007.000000, 91.427018
1006.000000, 91.451912
1005.000000, 91.485657
1004.000000, 91.450940
1003.000000, 91.448358
1002.000000, 91.449264
1001.000000, 91.445778
1000.000000, 91.453016
999.000000, 91.418973
998.000000, 91.442339
997.000000, 91.485314
996.000000, 91.484650
995.000000, 91.435495
994.000000, 91.425251
993.000000, 91.425682
992.000000, 91.452712
991.000000, 91.423338
990.000000, 91.423392
989.000000, 91.464866
988.000000, 91.459944
987.000000, 91.411008
986.000000, 91.422003
985.000000, 91.411380
984.000000, 91.408255
983.000000, 91.412826
982.000000, 91.400813
981.000000, 91.420199
980.000000, 91.386491
979.000000, 91.397769
978.000000, 91.392678
977.000000, 91.376752
976.000000, 91.319297
975.000000, 91.334566
974.000000, 91.377978
973.000000, 91.346969
972.000000, 91.372099
971.000000, 91.360108
970.000000, 91.339981
969.000000, 91.336421
968.000000, 91.396480
967.000000, 91.431621
966.000000, 91.360353
965.000000, 91.332295
964.000000, 91.396249
963.000000, 91.418133
962.000000, 91.371538
961.000000, 91.343250
960.000000, 91.371578
959.000000, 91.388916
958.000000, 91.389181
957.000000, 91.379482
956.000000, 91.389585
955.000000, 91.403128
954.000000, 91.345145
953.000000, 91.323135
952.000000, 91.385783
951.000000, 91.408099
950.000000, 91.374583
949.000000, 91.358199
948.000000, 91.368382
947.000000, 91.357910
946.000000, 91.360374
945.000000, 91.368925
944.000000, 91.369957
943.000000, 91.340767
942.000000, 91.327004
941.000000, 91.346011
940.000000, 91.362850
939.000000, 91.343317
938.000000, 91.346438
937.000000, 91.351281
936.000000, 91.325060
935.000000, 91.301875
934.000000, 91.310187
933.000000, 91.315921
932.000000, 91.315505
931.000000, 91.315451
930.000000, 91.329649
929.000000, 91.320611
928.000000, 91.306015
927.000000, 91.305808
926.000000, 91.358668
925.000000, 91.363677
924.000000, 91.323131
923.000000, 91.318538
922.000000, 91.294810
921.000000, 91.273260
920.000000, 91.269685
919.000000, 91.339718
918.000000, 91.351156
917.000000, 91.334239
916.000000, 91.271556
915.000000, 91.303260
914.000000, 91.334338
913.000000, 91.287915
912.000000, 91.292067
911.000000, 91.258664
910.000000, 91.250173
909.000000, 91.295310
908.000000, 91.301250
907.000000, 91.273484
906.000000, 91.265169
905.000000, 91.277502
904.000000, 91.198454
903.000000, 91.215632
902.000000, 91.256217
901.000000, 91.234427
900.000000, 91.211087
