nm, %T
1800.000000, 93.143610
1799.000000, 93.138519
1798.000000, 93.209257
1797.000000, 93.181891
1796.000000, 93.207107
1795.000000, 93.177906
1794.000000, 93.147874
1793.000000, 93.158314
1792.000000, 93.194559
1791.000000, 93.194058
1790.000000, 93.182363
1789.000000, 93.203897
1788.000000, 93.150556
1787.000000, 93.212617
1786.000000, 93.144997
1785.000000, 93.161037
1784.000000, 93.160610
1783.000000, 93.117846
1782.000000, 93.094887
1781.000000, 93.140051
1780.000000, 93.066057
1779.000000, 93.114726
1778.000000, 93.120616
1777.000000, 93.162716
1776.000000, 93.072471
1775.000000, 93.104631
1774.000000, 93.034450
1773.000000, 93.057631
1772.000000, 93.064830
1771.000000, 93.095525
1770.000000, 93.065584
1769.000000, 93.076269
1768.000000, 93.056105
1767.000000, 93.036051
1766.000000, 93.037060
1765.000000, 93.003629
1764.000000, 93.039721
1763.000000, 93.031209
1762.000000, 93.006929
1761.000000, 93.013124
1760.000000, 93.004538
1759.000000, 93.045496
1758.000000, 92.986896
1757.000000, 92.983896
1756.000000, 92.971729
1755.000000, 93.017258
1754.000000, 93.000045
1753.000000, 93.033361
1752.000000, 93.026686
1751.000000, 92.995746
1750.000000, 92.962671
1749.000000, 92.930610
1748.000000, 92.952744
1747.000000, 92.957945
1746.000000, 92.934211
1745.000000, 92.912585
1744.000000, 92.941116
1743.000000, 92.928394
1742.000000, 92.965118
1741.000000, 92.941409
1740.000000, 92.928430
1739.000000, 92.889937
1738.000000, 92.908247
1737.000000, 92.911758
1736.000000, 92.900693
1735.000000, 92.853232
1734.000000, 92.795943
1733.000000, 92.881716
1732.000000, 92.918861
1731.000000, 92.856532
1730.000000, 92.856615
1729.000000, 92.805243
1728.000000, 92.826595
1727.000000, 92.844572
1726.000000, 92.851395
1725.000000, 92.843649
1724.000000, 92.824669
1723.000000, 92.812074
1722.000000, 92.805855
1721.000000, 92.805692
1720.000000, 92.793520
1719.000000, 92.753739
1718.000000, 92.746014
1717.000000, 92.744207
1716.000000, 92.768239
1715.000000, 92.819680
1714.000000, 92.765008
1713.000000, 92.729307
1712.000000, 92.725422
1711.000000, 92.736901
1710.000000, 92.737008
1709.000000, 92.731879
1708.000000, 92.776755
1707.000000, 92.746319
1706.000000, 92.694084
1705.000000, 92.727416
1704.000000, 92.706996
1703.000000, 92.669191
1702.000000, 92.660795
1701.000000, 92.662241
1700.000000, 92.659081
1699.000000, 92.681852
1698.000000, 92.683321
1697.000000, 92.590708
1696.000000, 92.576655
1695.000000, 92.575233
1694.000000, 92.591616
1693.000000, 92.636338
1692.000000, 92.612093
1691.000000, 92.555616
1690.000000, 92.576622
1689.000000, 92.588669
1688.000000, 92.556895
1687.000000, 92.588395
1686.000000, 92.605033
1685.000000, 92.548077
1684.000000, 92.527890
1683.000000, 92.546791
1682.000000, 92.549191
1681.000000, 92.528609
1680.000000, 92.509075
1679.000000, 92.514986
1678.000000, 92.484652
1677.000000, 92.491923
1676.000000, 92.516510
1675.000000, 92.493839
1674.000000, 92.478649
1673.000000, 92.467667
1672.000000, 92.452485
1671.000000, 92.473646
1670.000000, 92.473267
1669.000000, 92.454562
1668.000000, 92.438487
1667.000000, 92.428822
1666.000000, 92.421982
1665.000000, 92.385015
1664.000000, 92.401450
1663.000000, 92.428218
1662.000000, 92.389773
1661.000000, 92.369891
1660.000000, 92.359804
1659.000000, 92.410510
1658.000000, 92.396701
1657.000000, 92.376521
1656.000000, 92.379139
1655.000000, 92.363842
1654.000000, 92.333267
1653.000000, 92.371680
1652.000000, 92.363496
1651.000000, 92.342967
1650.000000, 92.295498
1649.000000, 92.284266
1648.000000, 92.270752
1647.000000, 92.293359
1646.000000, 92.316395
1645.000000, 92.281102
1644.000000, 92.268954
1643.000000, 92.281606
1642.000000, 92.325957
1641.000000, 92.314285
1640.000000, 92.252257
1639.000000, 92.234943
1638.000000, 92.231894
1637.000000, 92.238282
1636.000000, 92.244908
1635.000000, 92.286068
1634.000000, 92.210899
1633.000000, 92.197656
1632.000000, 92.178111
1631.000000, 92.188651
1630.000000, 92.190697
1629.000000, 92.189632
1628.000000, 92.210392
1627.000000, 92.137523
1626.000000, 92.135601
1625.000000, 92.170268
1624.000000, 92.159776
1623.000000, 92.119443
1622.000000, 92.126630
1621.000000, 92.161389
1620.000000, 92.173501
1619.000000, 92.136455
1618.000000, 92.143271
1617.000000, 92.158964
1616.000000, 92.075866
1615.000000, 92.083103
1614.000000, 92.110704
1613.000000, 92.119148
1612.000000, 92.082343
1611.000000, 92.111948
1610.000000, 92.121318
1609.000000, 92.097177
1608.000000, 92.089508
1607.000000, 92.060318
1606.000000, 92.050797
1605.000000, 92.043866
1604.000000, 92.004149
1603.000000, 92.062627
1602.000000, 92.021821
1601.000000, 91.992812
1600.000000, 92.034150
1599.000000, 91.995057
1598.000000, 91.982432
1597.000000, 91.982947
1596.000000, 92.039187
1595.000000, 92.031870
1594.000000, 92.005787
1593.000000, 92.024926
1592.000000, 91.984854
1591.000000, 91.974882
1590.000000, 91.976930
1589.000000, 91.987092
1588.000000, 91.969546
1587.000000, 91.941409
1586.000000, 91.964658
1585.000000, 91.930570
1584.000000, 91.909971
1583.000000, 91.911383
1582.000000, 91.955138
1581.000000, 91.901561
1580.000000, 91.917873
1579.000000, 91.929317
1578.000000, 91.923638
1577.000000, 91.860601
1576.000000, 91.909979
1575.000000, 91.866751
1574.000000, 91.946653
1573.000000, 91.830864
1572.000000, 91.876767
1571.000000, 91.893515
1570.000000, 91.918718
1569.000000, 91.853049
1568.000000, 91.861579
1567.000000, 91.823602
1566.000000, 91.881187
1565.000000, 91.850705
1564.000000, 91.837819
1563.000000, 91.851567
1562.000000, 91.850704
1561.000000, 91.828936
1560.000000, 91.862879
1559.000000, 91.839120
1558.000000, 91.775618
1557.000000, 91.854466
1556.000000, 91.867228
1555.000000, 91.826925
1554.000000, 91.826716
1553.000000, 91.837551
1552.000000, 91.855438
1551.000000, 91.809188
1550.000000, 91.842609
1549.000000, 91.853847
1548.000000, 91.788627
1547.000000, 91.820147
1546.000000, 91.798581
1545.000000, 91.829816
1544.000000, 91.801007
1543.000000, 91.846907
1542.000000, 91.816282
1541.000000, 91.809496
1540.000000, 91.764509
1539.000000, 91.729830
1538.000000, 91.766423
1537.000000, 91.801860
1536.000000, 91.787292
1535.000000, 91.793110
1534.000000, 91.787171
1533.000000, 91.767733
1532.000000, 91.799734
1531.000000, 91.832740
1530.000000, 91.763398
1529.000000, 91.778593
1528.000000, 91.754916
1527.000000, 91.760244
1526.000000, 91.755837
1525.000000, 91.751682
1524.000000, 91.719186
1523.000000, 91.712829
1522.000000, 91.796453
1521.000000, 91.738602
1520.000000, 91.756234
1519.000000, 91.775142
1518.000000, 91.776230
1517.000000, 91.763406
1516.000000, 91.786208
1515.000000, 91.813727
1514.000000, 91.804547
1513.000000, 91.732557
1512.000000, 91.791902
1511.000000, 91.775057
1510.000000, 91.789235
1509.000000, 91.814203
1508.000000, 91.784344
1507.000000, 91.738499
1506.000000, 91.789356
1505.000000, 91.774479
1504.000000, 91.809771
1503.000000, 91.788224
1502.000000, 91.784108
1501.000000, 91.756101
1500.000000, 91.805721
1499.000000, 91.785301
1498.000000, 91.745412
1497.000000, 91.776749
1496.000000, 91.778738
1495.000000, 91.779611
1494.000000, 91.833961
1493.000000, 91.822053
1492.000000, 91.769958
1491.000000, 91.777064
1490.000000, 91.840385
1489.000000, 91.806804
1488.000000, 91.788165
1487.000000, 91.779742
1486.000000, 91.781789
1485.000000, 91.780891
1484.000000, 91.828829
1483.000000, 91.810106
1482.000000, 91.819799
1481.000000, 91.774970
1480.000000, 91.814988
1479.000000, 91.779639
1478.000000, 91.791021
1477.000000, 91.804874
1476.000000, 91.826273
1475.000000, 91.815339
1474.000000, 91.814518
1473.000000, 91.824722
1472.000000, 91.817298
1471.000000, 91.842799
1470.000000, 91.837723
1469.000000, 91.842485
1468.000000, 91.843934
1467.000000, 91.828522
1466.000000, 91.822376
1465.000000, 91.828886
1464.000000, 91.857043
1463.000000, 91.857560
1462.000000, 91.844257
1461.000000, 91.852719
1460.000000, 91.858061
1459.000000, 91.833111
1458.000000, 91.827724
1457.000000, 91.842000
1456.000000, 91.873109
1455.000000, 91.879425
1454.000000, 91.855861
1453.000000, 91.857494
1452.000000, 91.882533
1451.000000, 91.867573
1450.000000, 91.850038
1449.000000, 91.889397
1448.000000, 91.903545
1447.000000, 91.927801
1446.000000, 91.960243
1445.000000, 91.932931
1444.000000, 91.928849
1443.000000, 91.939137
1442.000000, 91.909283
1441.000000, 91.886461
1440.000000, 91.921359
1439.000000, 91.941403
1438.000000, 91.888068
1437.000000, 91.882893
1436.000000, 91.911758
1435.000000, 91.907954
1434.000000, 91.910254
1433.000000, 91.924908
1432.000000, 91.930886
1431.000000, 91.939131
1430.000000, 91.891482
1429.000000, 91.873798
1428.000000, 91.908319
1427.000000, 91.906764
1426.000000, 91.866405
1425.000000, 91.849904
1424.000000, 91.887897
1423.000000, 91.889429
1422.000000, 91.880263
1421.000000, 91.873051
1420.000000, 91.848423
1419.000000, 91.877538
1418.000000, 91.889697
1417.000000, 91.876562
1416.000000, 91.868035
1415.000000, 91.829002
1414.000000, 91.820939
1413.000000, 91.790342
1412.000000, 91.755324
1411.000000, 91.763398
1410.000000, 91.746033
1409.000000, 91.753532
1408.000000, 91.754465
1407.000000, 91.701227
1406.000000, 91.690335
1405.000000, 91.691008
1404.000000, 91.648620
1403.000000, 91.582261
1402.000000, 91.578454
1401.000000, 91.559624
1400.000000, 91.545611
1399.000000, 91.466898
1398.000000, 91.410404
1397.000000, 91.382166
1396.000000, 91.347894
1395.000000, 91.307753
1394.000000, 91.256660
1393.000000, 91.219027
1392.000000, 91.087309
1391.000000, 91.088121
1390.000000, 91.028587
1389.000000, 90.989798
1388.000000, 90.949778
1387.000000, 90.906749
1386.000000, 90.881913
1385.000000, 90.874788
1384.000000, 90.860401
1383.000000, 90.826672
1382.000000, 90.818284
1381.000000, 90.845053
1380.000000, 90.914313
1379.000000, 90.969755
1378.000000, 91.103577
1377.000000, 91.206807
1376.000000, 91.342840
1375.000000, 91.431199
1374.000000, 91.607883
1373.000000, 91.673846
1372.000000, 91.790922
1371.000000, 91.901455
1370.000000, 92.016784
1369.000000, 92.089830
1368.000000, 92.150215
1367.000000, 92.211520
1366.000000, 92.216840
1365.000000, 92.216066
1364.000000, 92.215050
1363.000000, 92.290684
1362.000000, 92.304452
1361.000000, 92.292250
1360.000000, 92.306685
1359.000000, 92.361667
1358.000000, 92.432848
1357.000000, 92.497806
1356.000000, 92.501762
1355.000000, 92.478693
1354.000000, 92.442706
1353.000000, 92.384910
1352.000000, 92.465079
1351.000000, 92.506643
1350.000000, 92.454467
1349.000000, 92.505816
1348.000000, 92.534356
1347.000000, 92.570438
1346.000000, 92.498258
1345.000000, 92.579690
1344.000000, 92.559308
1343.000000, 92.499271
1342.000000, 92.516313
1341.000000, 92.529719
1340.000000, 92.576418
1339.000000, 92.589687
1338.000000, 92.650396
1337.000000, 92.617189
1336.000000, 92.606109
1335.000000, 92.604940
1334.000000, 92.622177
1333.000000, 92.615470
1332.000000, 92.697059
1331.000000, 92.677328
1330.000000, 92.665949
1329.000000, 92.686132
1328.000000, 92.731369
1327.000000, 92.701201
1326.000000, 92.715053
1325.000000, 92.761684
1324.000000, 92.702831
1323.000000, 92.715158
1322.000000, 92.727405
1321.000000, 92.720256
1320.000000, 92.768470
1319.000000, 92.742228
1318.000000, 92.764954
1317.000000, 92.714031
1316.000000, 92.749091
1315.000000, 92.754197
1314.000000, 92.766010
1313.000000, 92.802285
1312.000000, 92.733709
1311.000000, 92.786104
1310.000000, 92.828646
1309.000000, 92.805832
1308.000000, 92.832412
1307.000000, 92.803907
1306.000000, 92.874492
1305.000000, 92.830975
1304.000000, 92.849879
1303.000000, 92.855360
1302.000000, 92.802276
1301.000000, 92.861715
1300.000000, 92.874608
1299.000000, 92.823948
1298.000000, 92.833666
1297.000000, 92.839796
1296.000000, 92.859355
1295.000000, 92.805842
1294.000000, 92.880065
1293.000000, 92.816860
1292.000000, 92.838865
1291.000000, 92.878968
1290.000000, 92.825741
1289.000000, 92.837101
1288.000000, 92.838931
1287.000000, 92.857448
1286.000000, 92.832368
1285.000000, 92.830824
1284.000000, 92.876105
1283.000000, 92.944855
1282.000000, 92.919527
1281.000000, 92.867950
1280.000000, 92.864953
1279.000000, 92.871458
1278.000000, 92.893344
1277.000000, 92.868191
1276.000000, 92.874067
1275.000000, 92.862147
1274.000000, 92.846185
1273.000000, 92.847244
1272.000000, 92.879696
1271.000000, 92.876803
1270.000000, 92.883356
1269.000000, 92.856727
1268.000000, 92.865405
1267.000000, 92.841551
1266.000000, 92.847121
1265.000000, 92.863158
1264.000000, 92.847331
1263.000000, 92.817056
1262.000000, 92.837065
1261.000000, 92.853442
1260.000000, 92.861379
1259.000000, 92.827570
1258.000000, 92.803463
1257.000000, 92.813366
1256.000000, 92.812796
1255.000000, 92.758273
1254.000000, 92.795865
1253.000000, 92.809760
1252.000000, 92.824846
1251.000000, 92.809279
1250.000000, 92.797257
1249.000000, 92.773629
1248.000000, 92.762855
1247.000000, 92.763924
1246.000000, 92.767966
1245.000000, 92.769422
1244.000000, 92.788547
1243.000000, 92.782028
1242.000000, 92.779757
1241.000000, 92.744229
1240.000000, 92.763273
1239.000000, 92.746373
1238.000000, 92.768595
1237.000000, 92.775893
1236.000000, 92.776256
1235.000000, 92.770828
1234.000000, 92.754379
1233.000000, 92.766846
1232.000000, 92.770891
1231.000000, 92.758159
1230.000000, 92.750143
1229.000000, 92.757249
1228.000000, 92.723752
1227.000000, 92.769572
1226.000000, 92.762145
1225.000000, 92.714526
1224.000000, 92.706841
1223.000000, 92.741216
1222.000000, 92.709636
1221.000000, 92.720112
1220.000000, 92.724182
1219.000000, 92.665539
1218.000000, 92.670379
1217.000000, 92.682475
1216.000000, 92.660649
1215.000000, 92.661442
1214.000000, 92.655914
1213.000000, 92.642050
1212.000000, 92.614295
1211.000000, 92.648966
1210.000000, 92.662736
1209.000000, 92.620882
1208.000000, 92.616878
1207.000000, 92.647234
1206.000000, 92.630766
1205.000000, 92.636405
1204.000000, 92.596730
1203.000000, 92.570973
1202.000000, 92.575699
1201.000000, 92.579314
1200.000000, 92.590341
1199.000000, 92.590576
1198.000000, 92.561338
1197.000000, 92.551131
1196.000000, 92.522399
1195.000000, 92.527244
1194.000000, 92.531642
1193.000000, 92.536360
1192.000000, 92.536006
1191.000000, 92.480727
1190.000000, 92.496450
1189.000000, 92.492622
1188.000000, 92.482556
1187.000000, 92.508749
1186.000000, 92.466320
1185.000000, 92.450069
1184.000000, 92.473652
1183.000000, 92.475137
1182.000000, 92.464613
1181.000000, 92.448371
1180.000000, 92.436152
1179.000000, 92.455093
1178.000000, 92.431120
1177.000000, 92.396226
1176.000000, 92.422250
1175.000000, 92.402324
1174.000000, 92.380856
1173.000000, 92.387779
1172.000000, 92.388456
1171.000000, 92.370785
1170.000000, 92.377901
1169.000000, 92.341729
1168.000000, 92.328542
1167.000000, 92.323297
1166.000000, 92.311597
1165.000000, 92.335856
1164.000000, 92.353579
1163.000000, 92.308905
1162.000000, 92.286736
1161.000000, 92.301988
1160.000000, 92.278506
1159.000000, 92.264506
1158.000000, 92.253806
1157.000000, 92.236597
1156.000000, 92.184018
1155.000000, 92.209958
1154.000000, 92.219565
1153.000000, 92.213678
1152.000000, 92.199445
1151.000000, 92.179931
1150.000000, 92.152273
1149.000000, 92.158786
1148.000000, 92.174001
1147.000000, 92.136702
1146.000000, 92.127731
1145.000000, 92.133586
1144.000000, 92.094328
1143.000000, 92.108131
1142.000000, 92.105871
1141.000000, 92.099683
1140.000000, 92.109264
1139.000000, 92.093563
1138.000000, 92.073417
1137.000000, 92.058733
1136.000000, 92.068888
1135.000000, 92.072417
1134.000000, 92.065733
1133.000000, 92.041374
1132.000000, 92.060711
1131.000000, 92.054922
1130.000000, 92.058645
1129.000000, 92.052311
1128.000000, 92.026077
1127.000000, 92.025535
1126.000000, 91.995939
1125.000000, 91.985309
1124.000000, 92.008145
1123.000000, 91.977205
1122.000000, 92.019649
1121.000000, 92.008362
1120.000000, 92.034034
1119.000000, 91.962993
1118.000000, 91.952651
1117.000000, 91.973610
1116.000000, 91.972808
1115.000000, 91.949636
1114.000000, 91.976744
1113.000000, 91.967372
1112.000000, 91.948544
1111.000000, 91.933057
1110.000000, 91.952233
1109.000000, 91.969334
1108.000000, 91.934695
1107.000000, 91.954028
1106.000000, 91.927190
1105.000000, 91.943042
1104.000000, 91.936782
1103.000000, 91.882669
1102.000000, 91.921806
1101.000000, 91.914167
1100.000000, 91.926757
1099.000000, 91.927343
1098.000000, 91.906844
1097.000000, 91.941914
1096.000000, 91.901190
1095.000000, 91.857234
1094.000000, 91.906083
1093.000000, 91.903563
1092.000000, 91.936611
1091.000000, 91.869545
1090.000000, 91.892829
1089.000000, 91.859794
1088.000000, 91.865983
1087.000000, 91.919760
1086.000000, 91.876284
1085.000000, 91.859329
1084.000000, 91.884716
1083.000000, 91.897330
1082.000000, 91.922220
1081.000000, 91.870898
1080.000000, 91.934660
1079.000000, 91.859276
1078.000000, 91.882632
1077.000000, 91.923218
1076.000000, 91.915790
1075.000000, 91.920405
1074.000000, 91.879395
1073.000000, 91.899787
1072.000000, 91.870192
1071.000000, 91.880275
1070.000000, 91.895474
1069.000000, 91.891907
1068.000000, 91.910217
1067.000000, 91.888313
1066.000000, 91.878236
1065.000000, 91.912912
1064.000000, 91.922814
1063.000000, 91.906007
1062.000000, 91.919509
1061.000000, 91.951670
1060.000000, 91.925129
1059.000000, 91.939805
1058.000000, 91.934570
1057.000000, 91.918710
1056.000000, 91.933003
1055.000000, 91.925339
1054.000000, 91.923547
1053.000000, 91.929243
1052.000000, 91.948542
1051.000000, 91.948492
1050.000000, 91.953332
1049.000000, 91.933994
1048.000000, 91.979155
1047.000000, 91.971217
1046.000000, 91.984942
1045.000000, 91.958350
1044.000000, 91.953289
1043.000000, 92.032297
1042.000000, 92.015024
1041.000000, 91.990235
1040.000000, 92.035239
1039.000000, 91.998661
1038.000000, 92.020294
1037.000000, 92.020917
1036.000000, 91.992662
1035.000000, 92.022759
1034.000000, 92.034553
1033.000000, 92.021002
1032.000000, 92.037428
1031.000000, 92.072679
1030.000000, 92.042686
1029.000000, 92.063444
1028.000000, 92.054224
1027.000000, 92.036464
1026.000000, 92.071251
1025.000000, 92.078767
1024.000000, 92.053387
1023.000000, 92.098184
1022.000000, 92.100215
1021.000000, 92.084796
1020.000000, 92.109517
1019.000000, 92.131300
1018.000000, 92.110442
1017.000000, 92.105374
1016.000000, 92.135976
1015.000000, 92.131145
1014.000000, 92.150174
1013.000000, 92.152925
1012.000000, 92.159176
1011.000000, 92.176497
1010.000000, 92.190579
1009.000000, 92.180251
1008.000000, 92.159913
1007.000000, 92.149262
1006.000000, 92.165773
1005.000000, 92.188877
1004.000000, 92.164475
1003.000000, 92.192120
1002.000000, 92.219140
1001.000000, 92.225250
1000.000000, 92.230712
999.000000, 92.235715
998.000000, 92.208535
997.000000, 92.206462
996.000000, 92.251399
995.000000, 92.238413
994.000000, 92.263244
993.000000, 92.265114
992.000000, 92.223409
991.000000, 92.276977
990.000000, 92.287159
989.000000, 92.253708
988.000000, 92.249297
987.000000, 92.260979
986.000000, 92.222339
985.000000, 92.239032
984.000000, 92.282330
983.000000, 92.305324
982.000000, 92.305958
981.000000, 92.259589
980.000000, 92.236293
979.000000, 92.296252
978.000000, 92.265596
977.000000, 92.230968
976.000000, 92.270818
975.000000, 92.236214
974.000000, 92.248325
973.000000, 92.316901
972.000000, 92.318352
971.000000, 92.308166
970.000000, 92.284814
969.000000, 92.281479
968.000000, 92.319220
967.000000, 92.333129
966.000000, 92.309201
965.000000, 92.279370
964.000000, 92.295771
963.000000, 92.327152
962.000000, 92.335972
961.000000, 92.307348
960.000000, 92.272633
959.000000, 92.273950
958.000000, 92.278332
957.000000, 92.269144
956.000000, 92.283629
955.000000, 92.288661
954.000000, 92.241481
953.000000, 92.232955
952.000000, 92.259404
951.000000, 92.248776
950.000000, 92.214530
949.000000, 92.238559
948.000000, 92.275317
947.000000, 92.246644
946.000000, 92.246238
945.000000, 92.265393
944.000000, 92.252322
943.000000, 92.204304
942.000000, 92.188576
941.000000, 92.161588
940.000000, 92.161446
939.000000, 92.198623
938.000000, 92.156797
937.000000, 92.135623
936.000000, 92.175620
935.000000, 92.194323
934.000000, 92.190054
933.000000, 92.160070
932.000000, 92.158022
931.000000, 92.164467
930.000000, 92.149639
929.000000, 92.187790
928.000000, 92.144825
927.000000, 92.200003
926.000000, 92.234243
925.000000, 92.109577
924.000000, 92.086757
923.000000, 92.115119
922.000000, 92.098105
921.000000, 92.063852
920.000000, 92.108672
919.000000, 92.077996
918.000000, 92.013298
917.000000, 92.001574
916.000000, 92.057231
915.000000, 92.079931
914.000000, 91.992349
913.000000, 91.987031
912.000000, 91.993039
911.000000, 91.993718
910.000000, 92.003495
909.000000, 91.932974
908.000000, 91.930000
907.000000, 91.991629
906.000000, 91.967312
905.000000, 91.923176
904.000000, 91.901137
903.000000, 91.953708
902.000000, 91.981075
901.000000, 91.954521
900.000000, 91.908895
