nm, %T
1800.000000, 90.427229
1799.000000, 90.454117
1798.000000, 90.522122
1797.000000, 90.473342
1796.000000, 90.488005
1795.000000, 90.458488
1794.000000, 90.522475
1793.000000, 90.512108
1792.000000, 90.507869
1791.000000, 90.529230
1790.000000, 90.555828
1789.000000, 90.531159
1788.000000, 90.585716
1787.000000, 90.580999
1786.000000, 90.587831
1785.000000, 90.584827
1784.000000, 90.627785
1783.000000, 90.618373
1782.000000, 90.576494
1781.000000, 90.594776
1780.000000, 90.608672
1779.000000, 90.567190
1778.000000, 90.599426
1777.000000, 90.701167
1776.000000, 90.604080
1775.000000, 90.622283
1774.000000, 90.644790
1773.000000, 90.652326
1772.000000, 90.619436
1771.000000, 90.640777
1770.000000, 90.620056
1769.000000, 90.685066
1768.000000, 90.681981
1767.000000, 90.638489
1766.000000, 90.660087
1765.000000, 90.632269
1764.000000, 90.716276
1763.000000, 90.717552
1762.000000, 90.700608
1761.000000, 90.756470
1760.000000, 90.684206
1759.000000, 90.741464
1758.000000, 90.803136
1757.000000, 90.791289
1756.000000, 90.804964
1755.000000, 90.801435
1754.000000, 90.776568
1753.000000, 90.803661
1752.000000, 90.769990
1751.000000, 90.865571
1750.000000, 90.863713
1749.000000, 90.845762
1748.000000, 90.822844
1747.000000, 90.831139
1746.000000, 90.854604
1745.000000, 90.852490
1744.000000, 90.867393
1743.000000, 90.865401
1742.000000, 90.906476
1741.000000, 90.928396
1740.000000, 90.955812
1739.000000, 90.948609
1738.000000, 90.936050
1737.000000, 90.966396
1736.000000, 90.947317
1735.000000, 90.952409
1734.000000, 90.991346
1733.000000, 91.013559
1732.000000, 90.997892
1731.000000, 91.026148
1730.000000, 91.033495
1729.000000, 91.036302
1728.000000, 91.030098
1727.000000, 91.067010
1726.000000, 91.096329
1725.000000, 91.055509
1724.000000, 91.037384
1723.000000, 91.083386
1722.000000, 91.134300
1721.000000, 91.113805
1720.000000, 91.129339
1719.000000, 91.110256
1718.000000, 91.146474
1717.000000, 91.146782
1716.000000, 91.139828
1715.000000, 91.160139
1714.000000, 91.172794
1713.000000, 91.174681
1712.000000, 91.203048
1711.000000, 91.224960
1710.000000, 91.234756
1709.000000, 91.216996
1708.000000, 91.242062
1707.000000, 91.232700
1706.000000, 91.264111
1705.000000, 91.266999
1704.000000, 91.258773
1703.000000, 91.253165
1702.000000, 91.266592
1701.000000, 91.265418
1700.000000, 91.277125
1699.000000, 91.325235
1698.000000, 91.336500
1697.000000, 91.330686
1696.000000, 91.351444
1695.000000, 91.373109
1694.000000, 91.352258
1693.000000, 91.372700
1692.000000, 91.374567
1691.000000, 91.401808
1690.000000, 91.403532
1689.000000, 91.381848
1688.000000, 91.429697
1687.000000, 91.420691
1686.000000, 91.428074
1685.000000, 91.468951
1684.000000, 91.461506
1683.000000, 91.453096
1682.000000, 91.467815
1681.000000, 91.481391
1680.000000, 91.487181
1679.000000, 91.471128
1678.000000, 91.474141
1677.000000, 91.487675
1676.000000, 91.522354
1675.000000, 91.544689
1674.000000, 91.558820
1673.000000, 91.601894
1672.000000, 91.602337
1671.000000, 91.597699
1670.000000, 91.623272
1669.000000, 91.572985
1668.000000, 91.553231
1667.000000, 91.586854
1666.000000, 91.596945
1665.000000, 91.615400
1664.000000, 91.641242
1663.000000, 91.633547
1662.000000, 91.591853
1661.000000, 91.613654
1660.000000, 91.661334
1659.000000, 91.674742
1658.000000, 91.680710
1657.000000, 91.678729
1656.000000, 91.687561
1655.000000, 91.703722
1654.000000, 91.718303
1653.000000, 91.733008
1652.000000, 91.713977
1651.000000, 91.715684
1650.000000, 91.729016
1649.000000, 91.752696
1648.000000, 91.762270
1647.000000, 91.774311
1646.000000, 91.784537
1645.000000, 91.774569
1644.000000, 91.779119
1643.000000, 91.772652
1642.000000, 91.772018
1641.000000, 91.795921
1640.000000, 91.797012
1639.000000, 91.825887
1638.000000, 91.843705
1637.000000, 91.816303
1636.000000, 91.841324
1635.000000, 91.863827
1634.000000, 91.881823
1633.000000, 91.873132
1632.000000, 91.887168
1631.000000, 91.863730
1630.000000, 91.857118
1629.000000, 91.845765
1628.000000, 91.882301
1627.000000, 91.904727
1626.000000, 91.873167
1625.000000, 91.882698
1624.000000, 91.934320
1623.000000, 91.922992
1622.000000, 91.919407
1621.000000, 91.926485
1620.000000, 91.870004
1619.000000, 91.932516
1618.000000, 91.958128
1617.000000, 91.976698
1616.000000, 91.964604
1615.000000, 91.956042
1614.000000, 91.961666
1613.000000, 91.947140
1612.000000, 91.967768
1611.000000, 92.031704
1610.000000, 91.952628
1609.000000, 92.017231
1608.000000, 91.958861
1607.000000, 91.949965
1606.000000, 91.987699
1605.000000, 92.019694
1604.000000, 91.995856
1603.000000, 92.005918
1602.000000, 91.996257
1601.000000, 92.030698
1600.000000, 92.011173
1599.000000, 92.066360
1598.000000, 92.022129
1597.000000, 91.988198
1596.000000, 92.026659
1595.000000, 92.065760
1594.000000, 92.054345
1593.000000, 92.108553
1592.000000, 92.025717
1591.000000, 92.025739
1590.000000, 92.054274
1589.000000, 91.993012
1588.000000, 92.030758
1587.000000, 92.060327
1586.000000, 92.126078
1585.000000, 92.056882
1584.000000, 92.011363
1583.000000, 92.023992
1582.000000, 92.058505
1581.000000, 92.064855
1580.000000, 92.058326
1579.000000, 92.017037
1578.000000, 91.999353
1577.000000, 92.064468
1576.000000, 92.041796
1575.000000, 92.035105
1574.000000, 92.076635
1573.000000, 92.055953
1572.000000, 92.031243
1571.000000, 92.028357
1570.000000, 92.013309
1569.000000, 92.042875
1568.000000, 92.003163
1567.000000, 92.081116
1566.000000, 92.015729
1565.000000, 92.011999
1564.000000, 92.027954
1563.000000, 92.007542
1562.000000, 92.067757
1561.000000, 92.033776
1560.000000, 91.995365
1559.000000, 92.055383
1558.000000, 92.057201
1557.000000, 92.047636
1556.000000, 92.016762
1555.000000, 92.017296
1554.000000, 92.004433
1553.000000, 92.037443
1552.000000, 91.995497
1551.000000, 92.034622
1550.000000, 92.048871
1549.000000, 91.993218
1548.000000, 91.972746
1547.000000, 92.004636
1546.000000, 91.990528
1545.000000, 92.019853
1544.000000, 91.990452
1543.000000, 91.977099
1542.000000, 91.977793
1541.000000, 92.011565
1540.000000, 91.969158
1539.000000, 91.958347
1538.000000, 91.991923
1537.000000, 91.917278
1536.000000, 91.895014
1535.000000, 91.943613
1534.000000, 91.866241
1533.000000, 91.928560
1532.000000, 91.910594
1531.000000, 91.861009
1530.000000, 91.846969
1529.000000, 91.878708
1528.000000, 91.925535
1527.000000, 91.912332
1526.000000, 91.936295
1525.000000, 91.895441
1524.000000, 91.854445
1523.000000, 91.893119
1522.000000, 91.885327
1521.000000, 91.877401
1520.000000, 91.908196
1519.000000, 91.901244
1518.000000, 91.892832
1517.000000, 91.895798
1516.000000, 91.865240
1515.000000, 91.845495
1514.000000, 91.871605
1513.000000, 91.807187
1512.000000, 91.829902
1511.000000, 91.839111
1510.000000, 91.783680
1509.000000, 91.793726
1508.000000, 91.772999
1507.000000, 91.762081
1506.000000, 91.767582
1505.000000, 91.730416
1504.000000, 91.777585
1503.000000, 91.756992
1502.000000, 91.730699
1501.000000, 91.769424
1500.000000, 91.679452
1499.000000, 91.678881
1498.000000, 91.705582
1497.000000, 91.691641
1496.000000, 91.689611
1495.000000, 91.678062
1494.000000, 91.670272
1493.000000, 91.687566
1492.000000, 91.679863
1491.000000, 91.662256
1490.000000, 91.652664
1489.000000, 91.636959
1488.000000, 91.633221
1487.000000, 91.635191
1486.000000, 91.628783
1485.000000, 91.588989
1484.000000, 91.594792
1483.000000, 91.546562
1482.000000, 91.557001
1481.000000, 91.590206
1480.000000, 91.585484
1479.000000, 91.571022
1478.000000, 91.559994
1477.000000, 91.514090
1476.000000, 91.490728
1475.000000, 91.533748
1474.000000, 91.544460
1473.000000, 91.506851
1472.000000, 91.482555
1471.000000, 91.481046
1470.000000, 91.483644
1469.000000, 91.431361
1468.000000, 91.457135
1467.000000, 91.459289
1466.000000, 91.435701
1465.000000, 91.375608
1464.000000, 91.369078
1463.000000, 91.398277
1462.000000, 91.397787
1461.000000, 91.388598
1460.000000, 91.349382
1459.000000, 91.322392
1458.000000, 91.317042
1457.000000, 91.333252
1456.000000, 91.385141
1455.000000, 91.352128
1454.000000, 91.279640
1453.000000, 91.245233
1452.000000, 91.267816
1451.000000, 91.259791
1450.000000, 91.249017
1449.000000, 91.271348
1448.000000, 91.226216
1447.000000, 91.204956
1446.000000, 91.226084
1445.000000, 91.215782
1444.000000, 91.208800
1443.000000, 91.218392
1442.000000, 91.194776
1441.000000, 91.143651
1440.000000, 91.124395
1439.000000, 91.159049
1438.000000, 91.115740
1437.000000, 91.085596
1436.000000, 91.061616
1435.000000, 91.031502
1434.000000, 91.043852
1433.000000, 91.069726
1432.000000, 91.058601
1431.000000, 90.995592
1430.000000, 90.969669
1429.000000, 90.969425
1428.000000, 90.953048
1427.000000, 90.921767
1426.000000, 90.935614
1425.000000, 90.923971
1424.000000, 90.880597
1423.000000, 90.859525
1422.000000, 90.835145
1421.000000, 90.816536
1420.000000, 90.818838
1419.000000, 90.777524
1418.000000, 90.719672
1417.000000, 90.712042
1416.000000, 90.714442
1415.000000, 90.722698
1414.000000, 90.721571
1413.000000, 90.647508
1412.000000, 90.606521
1411.000000, 90.589071
1410.000000, 90.571701
1409.000000, 90.545275
1408.000000, 90.521085
1407.000000, 90.491954
1406.000000, 90.482850
1405.000000, 90.443511
1404.000000, 90.373343
1403.000000, 90.353841
1402.000000, 90.295843
1401.000000, 90.228274
1400.000000, 90.187133
1399.000000, 90.131759
1398.000000, 90.060064
1397.000000, 90.023422
1396.000000, 89.955968
1395.000000, 89.912073
1394.000000, 89.806565
1393.000000, 89.759215
1392.000000, 89.679997
1391.000000, 89.598285
1390.000000, 89.562556
1389.000000, 89.470390
1388.000000, 89.414890
1387.000000, 89.363964
1386.000000, 89.334608
1385.000000, 89.311345
1384.000000, 89.253793
1383.000000, 89.274595
1382.000000, 89.259041
1381.000000, 89.242408
1380.000000, 89.276189
1379.000000, 89.352508
1378.000000, 89.479633
1377.000000, 89.607881
1376.000000, 89.649770
1375.000000, 89.768710
1374.000000, 89.944238
1373.000000, 90.021562
1372.000000, 90.091781
1371.000000, 90.198185
1370.000000, 90.252131
1369.000000, 90.356212
1368.000000, 90.382783
1367.000000, 90.471774
1366.000000, 90.486540
1365.000000, 90.459547
1364.000000, 90.542658
1363.000000, 90.559988
1362.000000, 90.537205
1361.000000, 90.573397
1360.000000, 90.582229
1359.000000, 90.572248
1358.000000, 90.501148
1357.000000, 90.561819
1356.000000, 90.632925
1355.000000, 90.633247
1354.000000, 90.537354
1353.000000, 90.593144
1352.000000, 90.591166
1351.000000, 90.681457
1350.000000, 90.587712
1349.000000, 90.531851
1348.000000, 90.571532
1347.000000, 90.645180
1346.000000, 90.644740
1345.000000, 90.629975
1344.000000, 90.641418
1343.000000, 90.619131
1342.000000, 90.632661
1341.000000, 90.662978
1340.000000, 90.691660
1339.000000, 90.700358
1338.000000, 90.660253
1337.000000, 90.720738
1336.000000, 90.693678
1335.000000, 90.704888
1334.000000, 90.677648
1333.000000, 90.676482
1332.000000, 90.709104
1331.000000, 90.673980
1330.000000, 90.718053
1329.000000, 90.711311
1328.000000, 90.726301
1327.000000, 90.722378
1326.000000, 90.755944
1325.000000, 90.771838
1324.000000, 90.734364
1323.000000, 90.739907
1322.000000, 90.763588
1321.000000, 90.745898
1320.000000, 90.807472
1319.000000, 90.732961
1318.000000, 90.732810
1317.000000, 90.783828
1316.000000, 90.801037
1315.000000, 90.750015
1314.000000, 90.817422
1313.000000, 90.793903
1312.000000, 90.821366
1311.000000, 90.820693
1310.000000, 90.840976
1309.000000, 90.847325
1308.000000, 90.787024
1307.000000, 90.854283
1306.000000, 90.836022
1305.000000, 90.837244
1304.000000, 90.842473
1303.000000, 90.854621
1302.000000, 90.859190
1301.000000, 90.852950
1300.000000, 90.861414
1299.000000, 90.899833
1298.000000, 90.916291
1297.000000, 90.884092
1296.000000, 90.865299
1295.000000, 90.931560
1294.000000, 90.873712
1293.000000, 90.859789
1292.000000, 90.965457
1291.000000, 90.927749
1290.000000, 90.900174
1289.000000, 90.874052
1288.000000, 90.962667
1287.000000, 90.946170
1286.000000, 90.944990
1285.000000, 90.971046
1284.000000, 90.952162
1283.000000, 90.974634
1282.000000, 91.017255
1281.000000, 91.040267
1280.000000, 91.044303
1279.000000, 91.063437
1278.000000, 91.021374
1277.000000, 91.023542
1276.000000, 91.068358
1275.000000, 91.033209
1274.000000, 91.058576
1273.000000, 91.069280
1272.000000, 91.069304
1271.000000, 91.041470
1270.000000, 91.057405
1269.000000, 91.089827
1268.000000, 91.087650
1267.000000, 91.097110
1266.000000, 91.096123
1265.000000, 91.111021
1264.000000, 91.109839
1263.000000, 91.089598
1262.000000, 91.146039
1261.000000, 91.145735
1260.000000, 91.090235
1259.000000, 91.098757
1258.000000, 91.136735
1257.000000, 91.146272
1256.000000, 91.164915
1255.000000, 91.124056
1254.000000, 91.156171
1253.000000, 91.158003
1252.000000, 91.196719
1251.000000, 91.208758
1250.000000, 91.200704
1249.000000, 91.214424
1248.000000, 91.184103
1247.000000, 91.188933
1246.000000, 91.214812
1245.000000, 91.242363
1244.000000, 91.277472
1243.000000, 91.244590
1242.000000, 91.251584
1241.000000, 91.246335
1240.000000, 91.268533
1239.000000, 91.306818
1238.000000, 91.325334
1237.000000, 91.338763
1236.000000, 91.335850
1235.000000, 91.316107
1234.000000, 91.338801
1233.000000, 91.349714
1232.000000, 91.362005
1231.000000, 91.350879
1230.000000, 91.399638
1229.000000, 91.400570
1228.000000, 91.344079
1227.000000, 91.398342
1226.000000, 91.416479
1225.000000, 91.408970
1224.000000, 91.390328
1223.000000, 91.347377
1222.000000, 91.366966
1221.000000, 91.407119
1220.000000, 91.431257
1219.000000, 91.477153
1218.000000, 91.456367
1217.000000, 91.432086
1216.000000, 91.455804
1215.000000, 91.468141
1214.000000, 91.470149
1213.000000, 91.509362
1212.000000, 91.522662
1211.000000, 91.488049
1210.000000, 91.498358
1209.000000, 91.491139
1208.000000, 91.498165
1207.000000, 91.482678
1206.000000, 91.508786
1205.000000, 91.510336
1204.000000, 91.514836
1203.000000, 91.499929
1202.000000, 91.487963
1201.000000, 91.516707
1200.000000, 91.551322
1199.000000, 91.537090
1198.000000, 91.545869
1197.000000, 91.554395
1196.000000, 91.529301
1195.000000, 91.526012
1194.000000, 91.530014
1193.000000, 91.532010
1192.000000, 91.532511
1191.000000, 91.541775
1190.000000, 91.557048
1189.000000, 91.543811
1188.000000, 91.539769
1187.000000, 91.542245
1186.000000, 91.538374
1185.000000, 91.551695
1184.000000, 91.547782
1183.000000, 91.542652
1182.000000, 91.522721
1181.000000, 91.509255
1180.000000, 91.538970
1179.000000, 91.538651
1178.000000, 91.502874
1177.000000, 91.521626
1176.000000, 91.540261
1175.000000, 91.546638
1174.000000, 91.548992
1173.000000, 91.560532
1172.000000, 91.539418
1171.000000, 91.503733
1170.000000, 91.501775
1169.000000, 91.507042
1168.000000, 91.515855
1167.000000, 91.505358
1166.000000, 91.502084
1165.000000, 91.503706
1164.000000, 91.504421
1163.000000, 91.488766
1162.000000, 91.499835
1161.000000, 91.467142
1160.000000, 91.466246
1159.000000, 91.482459
1158.000000, 91.469383
1157.000000, 91.464867
1156.000000, 91.484449
1155.000000, 91.477007
1154.000000, 91.483883
1153.000000, 91.444232
1152.000000, 91.459690
1151.000000, 91.473261
1150.000000, 91.464558
1149.000000, 91.439521
1148.000000, 91.430718
1147.000000, 91.381987
1146.000000, 91.360455
1145.000000, 91.428892
1144.000000, 91.408086
1143.000000, 91.384726
1142.000000, 91.382875
1141.000000, 91.375739
1140.000000, 91.332667
1139.000000, 91.321489
1138.000000, 91.328581
1137.000000, 91.352849
1136.000000, 91.326579
1135.000000, 91.287199
1134.000000, 91.289194
1133.000000, 91.311299
1132.000000, 91.314365
1131.000000, 91.320591
1130.000000, 91.338170
1129.000000, 91.305493
1128.000000, 91.276167
1127.000000, 91.278558
1126.000000, 91.288010
1125.000000, 91.270399
1124.000000, 91.265312
1123.000000, 91.214418
1122.000000, 91.214449
1121.000000, 91.211046
1120.000000, 91.232702
1119.000000, 91.211271
1118.000000, 91.200047
1117.000000, 91.207863
1116.000000, 91.193051
1115.000000, 91.207042
1114.000000, 91.202296
1113.000000, 91.178263
1112.000000, 91.154490
1111.000000, 91.182703
1110.000000, 91.125020
1109.000000, 91.144452
1108.000000, 91.135208
1107.000000, 91.148694
1106.000000, 91.168590
1105.000000, 91.112367
1104.000000, 91.096934
1103.000000, 91.100279
1102.000000, 91.089626
1101.000000, 91.049801
1100.000000, 91.057435
1099.000000, 91.087575
1098.000000, 91.037711
1097.000000, 91.075850
1096.000000, 91.079368
1095.000000, 91.045620
1094.000000, 91.049573
1093.000000, 91.048472
1092.000000, 91.007523
1091.000000, 91.002643
1090.000000, 91.023917
1089.000000, 91.019466
1088.000000, 90.991332
1087.000000, 90.982854
1086.000000, 91.000582
1085.000000, 91.016527
1084.000000, 91.000819
1083.000000, 90.934720
1082.000000, 90.971145
1081.000000, 91.027076
1080.000000, 90.978985
1079.000000, 90.987979
1078.000000, 90.945880
1077.000000, 90.978962
1076.000000, 90.955926
1075.000000, 90.992213
1074.000000, 90.925099
1073.000000, 90.958994
1072.000000, 90.988873
1071.000000, 90.930584
1070.000000, 90.942691
1069.000000, 90.918525
1068.000000, 90.944806
1067.000000, 90.912281
1066.000000, 90.931514
1065.000000, 90.923684
1064.000000, 90.932702
1063.000000, 90.936775
1062.000000, 90.856066
1061.000000, 90.887638
1060.000000, 90.915091
1059.000000, 90.905192
1058.000000, 90.889304
1057.000000, 90.885548
1056.000000, 90.875793
1055.000000, 90.868162
1054.000000, 90.965128
1053.000000, 90.948472
1052.000000, 90.861873
1051.000000, 90.875355
1050.000000, 90.877713
1049.000000, 90.940456
1048.000000, 90.883856
1047.000000, 90.937314
1046.000000, 90.886982
1045.000000, 90.930827
1044.000000, 90.870989
1043.000000, 90.908319
1042.000000, 90.919378
1041.000000, 90.867884
1040.000000, 90.865921
1039.000000, 90.894815
1038.000000, 90.901624
1037.000000, 90.976642
1036.000000, 90.955257
1035.000000, 90.909245
1034.000000, 90.894005
1033.000000, 90.943140
1032.000000, 90.917665
1031.000000, 90.938582
1030.000000, 90.903718
1029.000000, 90.914310
1028.000000, 90.903012
1027.000000, 90.937962
1026.000000, 90.962098
1025.000000, 90.948182
1024.000000, 90.932650
1023.000000, 90.928825
1022.000000, 90.991293
1021.000000, 90.933765
1020.000000, 90.946399
1019.000000, 91.023986
1018.000000, 90.943662
1017.000000, 90.916773
1016.000000, 90.965552
1015.000000, 91.034334
1014.000000, 91.023628
1013.000000, 91.000386
1012.000000, 90.990946
1011.000000, 90.949684
1010.000000, 91.001801
1009.000000, 91.013209
1008.000000, 91.001689
1007.000000, 91.002118
1006.000000, 90.997753
1005.000000, 90.987467
1004.000000, 90.996036
1003.000000, 90.979373
1002.000000, 91.053286
1001.000000, 90.993778
1000.000000, 91.002068
999.000000, 90.988378
998.000000, 91.039896
997.000000, 91.046051
996.000000, 91.018790
995.000000, 91.007196
994.000000, 91.020346
993.000000, 91.040094
992.000000, 91.011386
991.000000, 91.053386
990.000000, 91.058769
989.000000, 91.017341
988.000000, 91.057442
987.000000, 91.037666
986.000000, 91.040946
985.000000, 91.058144
984.000000, 91.040648
983.000000, 91.004445
982.000000, 91.004699
981.000000, 91.007813
980.000000, 90.992502
979.000000, 90.978213
978.000000, 90.987503
977.000000, 90.973029
976.000000, 90.934302
975.000000, 90.910798
974.000000, 90.962567
973.000000, 90.985809
972.000000, 90.961299
971.000000, 90.967060
970.000000, 90.981786
969.000000, 91.017168
968.000000, 91.012811
967.000000, 91.033622
966.000000, 91.043796
965.000000, 91.046456
964.000000, 91.042879
963.000000, 91.054968
962.000000, 91.062847
961.000000, 91.056415
960.000000, 91.022976
959.000000, 91.031303
958.000000, 91.067223
957.000000, 91.057159
956.000000, 91.050438
955.000000, 91.076002
954.000000, 91.069840
953.000000, 91.023792
952.000000, 91.017832
951.000000, 91.055502
950.000000, 91.016136
949.000000, 90.995926
948.000000, 91.036407
947.000000, 91.014533
946.000000, 90.994297
945.000000, 91.019402
944.000000, 91.053134
943.000000, 90.987112
942.000000, 90.957364
941.000000, 90.985935
940.000000, 90.992243
939.000000, 90.972682
938.000000, 90.949403
937.000000, 90.982291
936.000000, 90.973231
935.000000, 90.945494
934.000000, 90.964391
933.000000, 90.942628
932.000000, 90.910743
931.000000, 90.931363
930.000000, 90.944949
929.000000, 90.961920
928.000000, 90.921683
927.000000, 90.888469
926.000000, 90.968815
925.000000, 90.923207
924.000000, 90.814071
923.000000, 90.855095
922.000000, 90.890309
921.000000, 90.882261
920.000000, 90.883814
919.000000, 90.931099
918.000000, 90.866413
917.000000, 90.849311
916.000000, 90.855396
915.000000, 90.841762
914.000000, 90.828310
913.000000, 90.847371
912.000000, 90.837350
911.000000, 90.843688
910.000000, 90.820058
909.000000, 90.791327
908.000000, 90.807208
907.000000, 90.794305
906.000000, 90.805152
905.000000, 90.799725
904.000000, 90.778736
903.000000, 90.792812
902.000000, 90.776032
901.000000, 90.769744
900.000000, 90.779212
