Distance (µm),Zn Kα1,O Kα1,Si Kα1,Te Kα1,Er Lα1,Na Kα1_2,
0,2,0,4,0,3,12,
0.00519436024898257,7,1,7,0,4,9,
0.0103887204979651,3,4,4,0,6,9,
0.0155830807469477,1,4,10,0,3,7,
0.0207774409959303,5,0,11,0,10,12,
0.0259718012449128,3,5,14,0,3,12,
0.0311661614938954,3,1,8,0,3,9,
0.036360521742878,2,6,7,2,4,11,
0.0415548819918605,3,2,9,0,3,9,
0.0467492422408431,2,1,12,0,1,4,
0.0519436024898257,2,0,10,0,6,7,
0.0571379627388082,6,4,4,1,5,14,
0.0623323229877908,4,2,8,0,2,5,
0.0675266832367734,5,3,10,0,5,7,
0.0727210434857559,4,4,11,0,3,7,
0.0779154037347385,1,2,9,0,1,10,
0.0831097639837211,3,4,4,0,1,7,
0.0883041242327036,3,4,0,0,2,8,
0.0934984844816862,2,2,10,0,1,6,
0.0986928447306688,6,5,16,1,5,21,
0.103887204979651,16,6,24,0,8,17,
0.109081565228634,13,9,18,3,10,11,
0.114275925477616,13,6,19,2,12,14,
0.119470285726599,13,4,25,2,6,9,
0.124664645975582,13,4,20,1,9,16,
0.129859006224564,2,5,22,0,1,5,
0.135053366473547,1,6,46,0,0,0,
0.140247726722529,5,10,56,0,0,1,
0.145442086971512,9,9,55,0,2,4,
0.150636447220494,1,7,57,0,2,0,
0.155830807469477,5,13,49,1,0,1,
0.16102516771846,0,16,47,0,1,1,
0.166219527967442,1,24,69,0,1,3,
0.171413888216425,2,10,69,0,0,1,
0.176608248465407,4,12,64,0,1,2,
0.18180260871439,1,16,57,0,0,2,
0.186996968963372,2,11,59,0,0,1,
0.192191329212355,2,16,48,0,0,1,
0.197385689461338,2,16,66,0,0,0,
0.20258004971032,3,15,52,0,1,3,
0.207774409959303,2,22,47,0,2,2,
0.212968770208285,1,24,53,0,0,2,
0.218163130457268,3,24,39,0,0,0,
0.22335749070625,0,16,50,0,2,0,
0.228551850955233,2,11,40,0,1,3,
0.233746211204215,2,20,42,0,1,4,
0.238940571453198,1,21,52,0,1,3,
0.244134931702181,3,16,43,0,0,0,
0.249329291951163,0,15,61,0,0,2,
0.254523652200146,3,10,48,0,0,2,
0.259718012449128,0,16,50,0,0,1,
0.264912372698111,0,19,34,0,0,1,
0.270106732947093,2,13,31,0,0,2,
0.275301093196076,1,22,36,0,0,2,
0.280495453445059,0,16,31,0,0,3,
0.285689813694041,0,13,44,0,0,1,
0.290884173943024,1,17,42,0,0,1,
0.296078534192006,1,21,39,0,0,0,
0.301272894440989,1,34,50,0,0,1,
0.306467254689971,4,18,42,0,0,0,
0.311661614938954,2,20,43,0,0,0,
0.316855975187937,2,14,33,0,0,1,
0.322050335436919,1,8,28,0,0,3,
0.327244695685902,0,20,21,0,0,3,
0.332439055934884,4,27,47,0,0,2,
0.337633416183867,1,18,30,1,1,3,
0.342827776432849,2,27,46,0,1,1,
0.348022136681832,0,13,51,0,0,4,
0.353216496930814,2,20,45,0,0,1,
0.358410857179797,0,20,30,0,0,1,
0.36360521742878,1,23,39,0,0,1,
0.368799577677762,2,29,42,0,0,1,
0.373993937926745,1,25,20,0,0,0,
0.379188298175727,3,24,32,0,1,2,
0.38438265842471,0,24,44,0,0,5,
0.389577018673692,2,34,53,0,0,4,
0.394771378922675,4,32,47,0,1,2,
0.399965739171658,1,32,50,0,0,1,
0.40516009942064,2,25,45,0,1,2,
0.410354459669623,2,19,33,0,0,2,
0.415548819918605,1,20,39,0,1,3,
0.420743180167588,4,26,32,0,1,1,
0.42593754041657,0,27,44,0,1,2,
0.431131900665553,1,29,49,0,0,2,
0.436326260914536,2,33,45,0,0,4,
0.441520621163518,4,33,58,0,1,4,
0.446714981412501,0,39,60,0,0,5,
0.451909341661483,1,14,33,0,0,4,
0.457103701910466,2,24,40,0,2,2,
0.462298062159448,2,24,47,0,0,4,
0.467492422408431,3,31,47,0,0,3,
0.472686782657413,2,34,62,0,0,2,
0.477881142906396,3,35,46,1,2,1,
0.483075503155379,1,33,51,0,1,5,
0.488269863404361,6,22,39,0,1,2,
0.493464223653344,1,24,57,0,0,3,
0.498658583902326,0,31,67,0,0,5,
0.503852944151309,3,35,60,0,0,1,
0.509047304400291,1,33,56,0,0,0,
0.514241664649274,1,39,66,0,0,1,
0.519436024898257,0,36,60,0,0,4,
0.524630385147239,2,38,65,0,0,1,
0.529824745396222,2,41,55,0,0,0,
0.535019105645204,2,37,61,0,0,2,
0.540213465894187,1,34,67,0,0,6,
0.545407826143169,0,26,64,0,1,2,
0.550602186392152,1,54,65,0,0,1,
0.555796546641135,1,46,70,0,0,3,
0.560990906890117,5,43,64,0,0,3,
0.5661852671391,2,33,78,0,0,1,
0.571379627388082,2,30,64,0,1,1,
0.576573987637065,2,49,63,0,0,4,
0.581768347886047,6,53,68,0,0,5,
0.58696270813503,2,55,67,1,0,2,
0.592157068384013,1,36,58,0,1,1,
0.597351428632995,1,31,79,0,0,2,
0.602545788881978,1,41,80,0,0,2,
0.60774014913096,0,33,86,0,0,2,
0.612934509379943,0,46,73,0,0,2,
0.618128869628925,2,58,87,0,0,2,
0.623323229877908,2,54,71,0,0,1,
0.62851759012689,1,44,59,0,1,3,
0.633711950375873,1,39,56,0,0,5,
0.638906310624856,0,53,70,0,0,2,
0.644100670873838,1,49,61,0,1,2,
0.649295031122821,1,56,92,0,0,0,
0.654489391371803,2,51,78,0,0,1,
0.659683751620786,2,35,78,0,0,5,
0.664878111869768,3,39,78,0,0,2,
0.670072472118751,3,35,92,0,0,3,
0.675266832367734,3,42,85,0,1,2,
0.680461192616716,2,40,95,0,1,1,
0.685655552865699,0,43,82,0,0,3,
0.690849913114681,1,32,76,0,0,2,
0.696044273363664,2,41,74,0,0,0,
0.701238633612646,2,50,87,0,0,1,
0.706432993861629,1,33,72,0,1,3,
0.711627354110612,4,44,73,0,0,2,
0.716821714359594,0,38,70,0,0,1,
0.722016074608577,2,31,85,0,0,0,
0.727210434857559,2,46,82,0,0,2,
0.732404795106542,1,46,86,0,0,3,
0.737599155355524,1,42,68,0,0,3,
0.742793515604507,0,47,88,0,0,1,
0.747987875853489,2,29,81,1,0,1,
0.753182236102472,1,40,61,0,0,3,
0.758376596351455,2,29,83,0,0,2,
0.763570956600437,1,39,71,0,0,1,
0.76876531684942,2,37,61,0,1,2,
0.773959677098402,0,41,84,0,1,4,
0.779154037347385,1,49,74,0,0,0,
0.784348397596367,0,50,87,0,1,4,
0.78954275784535,3,44,88,0,0,3,
0.794737118094333,2,46,76,0,1,2,
0.799931478343315,1,33,84,0,0,1,
0.805125838592298,2,49,75,0,0,4,
0.81032019884128,1,42,72,0,1,2,
0.815514559090263,1,56,63,0,1,0,
0.820708919339245,0,39,82,0,0,4,
0.825903279588228,4,52,70,0,0,1,
0.831097639837211,2,34,69,0,0,4,
0.836292000086193,2,39,65,0,0,3,
0.841486360335176,1,38,79,0,0,1,
0.846680720584158,0,42,68,0,0,3,
0.851875080833141,1,44,82,0,1,0,
0.857069441082123,4,60,70,0,0,2,
0.862263801331106,1,48,75,0,0,2,
0.867458161580088,1,49,78,0,0,0,
0.872652521829071,1,50,91,0,0,0,
0.877846882078054,1,44,85,0,0,0,
0.883041242327036,2,46,79,0,0,3,
0.888235602576019,1,56,102,0,0,1,
0.893429962825001,0,63,83,0,0,3,
0.898624323073984,4,55,64,0,1,8,
0.903818683322966,3,40,101,0,0,6,
0.909013043571949,3,52,80,0,1,5,
0.914207403820932,0,42,68,0,0,5,
0.919401764069914,1,38,71,0,0,2,
0.924596124318897,0,44,90,0,0,1,
0.929790484567879,3,38,95,0,0,3,
0.934984844816862,2,36,90,0,0,5,
0.940179205065844,2,47,75,0,0,0,
0.945373565314827,1,34,77,0,0,1,
0.95056792556381,3,48,75,0,1,2,
0.955762285812792,1,44,80,0,0,1,
0.960956646061775,2,53,90,0,0,1,
0.966151006310757,2,39,92,0,0,1,
0.97134536655974,0,50,84,0,1,1,
0.976539726808722,0,46,83,0,0,2,
0.981734087057705,0,61,114,0,0,1,
0.986928447306688,1,51,87,0,0,0,
0.99212280755567,0,50,93,0,0,1,
0.997317167804653,2,54,99,0,0,0,
1.00251152805364,0,57,106,0,0,2,
1.00770588830262,0,62,98,0,0,1,
1.0129002485516,0,58,98,0,1,3,
1.01809460880058,0,58,94,0,0,3,
1.02328896904957,0,65,111,0,0,1,
1.02848332929855,0,56,100,0,0,2,
1.03367768954753,0,54,107,0,1,0,
1.03887204979651,0,49,105,0,0,1,
1.0440664100455,0,45,109,0,0,1,
1.04926077029448,0,63,94,0,0,1,
1.05445513054346,0,55,98,0,0,1,
1.05964949079244,0,53,110,0,0,0,
1.06484385104143,0,57,100,0,0,0,
1.07003821129041,0,40,91,0,0,1,
1.07523257153939,0,47,95,0,0,0,
1.08042693178837,0,77,115,0,2,0,
1.08562129203736,0,61,113,0,0,1,
1.09081565228634,0,44,76,0,2,1,
1.09601001253532,0,59,99,0,0,1,
1.1012043727843,0,68,88,0,0,0,
1.10639873303329,2,57,99,0,0,2,
1.11159309328227,0,64,104,0,0,1,
1.11678745353125,0,49,70,0,0,1,
1.12198181378023,0,60,83,0,0,0,
1.12717617402922,0,61,101,0,0,1,
1.1323705342782,1,57,89,0,0,2,
1.13756489452718,0,64,90,0,1,3,
1.14275925477616,1,65,98,0,0,0,
1.14795361502515,0,56,99,0,0,1,
1.15314797527413,0,53,106,0,0,1,
1.15834233552311,0,61,99,0,0,1,
1.16353669577209,0,58,106,0,0,1,
1.16873105602108,0,50,110,0,0,1,
1.17392541627006,0,54,121,0,0,2,
1.17911977651904,0,51,102,0,0,0,
1.18431413676803,0,63,97,0,0,2,
1.18950849701701,0,59,111,0,0,0,
1.19470285726599,1,48,96,0,0,0,
1.19989721751497,0,53,82,0,0,0,
1.20509157776396,1,54,99,0,0,2,
1.21028593801294,1,62,90,0,0,1,
1.21548029826192,0,57,105,0,0,1,
1.2206746585109,0,52,92,0,0,2,
1.22586901875989,0,44,90,0,0,0,
1.23106337900887,0,52,107,0,0,1,
1.23625773925785,0,54,96,0,0,2,
1.24145209950683,0,50,94,0,0,0,
1.24664645975582,0,57,89,0,1,2,
1.2518408200048,1,72,89,0,0,2,
1.25703518025378,1,52,98,0,2,3,
1.26222954050276,0,72,84,0,0,1,
1.26742390075175,0,56,89,0,0,0,
1.27261826100073,0,52,111,0,0,0,
1.27781262124971,1,59,98,0,0,1,
1.28300698149869,0,68,80,0,1,0,
1.28820134174768,0,56,113,0,2,1,
1.29339570199666,1,41,127,0,0,1,
