Distance (µm),Zn Kα1,O Kα1,Si Kα1,Ir Lα1,Pt Lα1,Te Kα1,Er Lα1,Na Kα1_2,
0,3,1,2,32,73,0,2,11,
0.00488928591169838,3,0,7,26,68,0,5,12,
0.00977857182339677,4,1,7,26,95,1,2,5,
0.0146678577350952,1,0,6,26,76,0,2,7,
0.0195571436467935,1,2,2,21,62,0,1,6,
0.0244464295584919,2,1,2,22,59,0,0,6,
0.0293357154701903,2,1,8,20,85,0,2,7,
0.0342250013818887,1,5,6,18,85,0,2,11,
0.0391142872935871,4,4,4,22,67,1,5,13,
0.0440035732052855,2,1,2,23,89,1,6,10,
0.0488928591169838,4,2,7,27,69,0,3,5,
0.0537821450286822,4,6,5,39,130,0,1,8,
0.0586714309403806,4,1,5,21,68,0,4,12,
0.063560716852079,0,0,7,12,41,1,1,11,
0.0684500027637774,1,2,3,21,25,0,0,4,
0.0733392886754758,1,2,3,20,25,0,0,5,
0.0782285745871742,2,1,2,67,30,2,0,7,
0.0831178604988725,4,4,10,180,55,0,2,10,
0.0880071464105709,7,5,12,199,30,0,8,8,
0.0928964323222693,8,4,16,216,5,0,11,9,
0.0977857182339677,9,5,27,222,11,2,4,5,
0.102675004145666,8,5,15,211,8,0,3,10,
0.107564290057364,9,3,11,115,6,1,2,5,
0.112453575969063,2,1,35,1,0,0,0,1,
0.117342861880761,1,3,33,0,0,0,1,0,
0.12223214779246,0,9,27,1,1,0,0,0,
0.127121433704158,4,7,30,0,0,0,0,2,
0.132010719615856,3,5,39,0,0,0,0,3,
0.136900005527555,0,6,41,0,1,0,0,0,
0.141789291439253,1,9,53,0,1,0,0,2,
0.146678577350952,1,11,34,0,0,0,0,2,
0.15156786326265,1,10,51,0,0,0,0,1,
0.156457149174348,2,14,44,0,0,0,0,1,
0.161346435086047,3,10,38,1,0,0,1,1,
0.166235720997745,3,11,38,1,0,0,1,3,
0.171125006909443,0,9,50,0,1,0,1,1,
0.176014292821142,3,13,43,0,1,0,0,1,
0.18090357873284,2,15,37,1,0,0,0,1,
0.185792864644539,1,16,37,0,0,0,0,1,
0.190682150556237,1,15,42,0,0,0,0,2,
0.195571436467935,0,21,41,0,1,0,0,1,
0.200460722379634,0,15,48,0,0,0,0,0,
0.205350008291332,2,17,49,0,0,0,0,2,
0.210239294203031,0,17,46,0,0,0,1,0,
0.215128580114729,0,15,45,0,0,0,0,1,
0.220017866026427,2,15,58,0,0,0,0,3,
0.224907151938126,0,23,49,0,1,0,0,2,
0.229796437849824,0,17,49,0,1,0,1,3,
0.234685723761522,1,20,49,0,0,0,1,1,
0.239575009673221,0,19,48,0,0,0,1,2,
0.244464295584919,2,17,50,0,0,0,0,0,
0.249353581496618,0,25,54,1,2,0,0,0,
0.254242867408316,1,15,44,0,0,0,0,1,
0.259132153320014,3,23,49,0,0,0,0,1,
0.264021439231713,1,25,59,1,1,0,0,0,
0.268910725143411,0,29,48,0,0,0,1,1,
0.27380001105511,0,25,36,0,0,0,0,1,
0.278689296966808,0,19,43,0,0,0,0,0,
0.283578582878506,0,24,32,1,0,0,0,0,
0.288467868790205,0,21,41,2,0,0,0,2,
0.293357154701903,0,30,40,0,0,0,0,0,
0.298246440613601,0,23,50,0,0,0,0,1,
0.3031357265253,1,20,29,0,0,0,0,1,
0.308025012436998,0,24,39,0,0,0,0,2,
0.312914298348697,0,27,48,1,1,0,2,2,
0.317803584260395,1,20,46,0,0,0,0,1,
0.322692870172093,0,21,43,0,0,0,1,1,
0.327582156083792,2,14,45,0,0,0,0,0,
0.33247144199549,0,19,46,0,0,0,0,1,
0.337360727907189,1,20,24,0,1,0,0,2,
0.342250013818887,0,25,37,0,1,0,0,1,
0.347139299730585,3,18,48,0,1,0,0,1,
0.352028585642284,2,15,47,0,0,0,0,3,
0.356917871553982,0,27,41,0,0,1,0,1,
0.36180715746568,0,31,37,1,0,0,0,2,
0.366696443377379,0,17,32,0,0,0,0,1,
0.371585729289077,2,13,38,0,2,0,0,2,
0.376475015200776,2,16,34,0,1,0,0,4,
0.381364301112474,0,25,48,0,0,0,0,0,
0.386253587024172,0,20,34,1,1,0,0,0,
0.391142872935871,0,24,32,0,0,0,0,0,
0.396032158847569,1,23,30,0,0,0,0,0,
0.400921444759268,0,25,41,0,0,0,0,0,
0.405810730670966,1,29,51,0,0,0,0,3,
0.410700016582664,0,22,42,0,0,0,0,0,
0.415589302494363,0,26,39,1,0,0,0,3,
0.420478588406061,0,37,45,0,0,0,0,1,
0.425367874317759,1,21,42,0,0,0,0,0,
0.430257160229458,1,23,41,0,0,0,0,2,
0.435146446141156,0,27,42,0,0,0,0,3,
0.440035732052855,2,28,48,0,1,0,0,1,
0.444925017964553,0,27,43,0,0,0,0,2,
0.449814303876251,1,26,38,0,0,0,1,2,
0.45470358978795,0,24,38,0,0,0,0,1,
0.459592875699648,1,32,46,2,1,0,0,2,
0.464482161611347,0,23,44,0,0,0,0,1,
0.469371447523045,1,23,30,0,0,0,0,1,
0.474260733434743,0,27,44,0,0,0,0,0,
0.479150019346442,2,20,46,0,1,0,0,1,
0.48403930525814,1,30,42,0,0,0,0,0,
0.488928591169838,0,29,46,0,0,0,0,1,
0.493817877081537,0,19,42,0,0,0,0,1,
0.498707162993235,2,22,43,0,0,0,0,3,
0.503596448904934,1,32,48,0,0,0,1,4,
0.508485734816632,0,28,37,0,2,0,0,3,
0.51337502072833,2,31,41,0,0,0,1,3,
0.518264306640029,1,30,30,0,1,0,0,1,
0.523153592551727,3,18,39,0,0,0,0,1,
0.528042878463426,0,23,39,0,0,0,0,1,
0.532932164375124,1,20,42,1,0,0,0,0,
0.537821450286822,0,30,37,0,0,0,0,0,
0.542710736198521,1,23,46,0,0,0,0,2,
0.547600022110219,1,16,38,0,0,0,1,0,
0.552489308021917,5,21,35,0,1,0,0,2,
0.557378593933616,0,26,35,0,0,0,0,2,
0.562267879845314,0,24,35,1,1,0,0,1,
0.567157165757013,0,22,46,0,0,0,0,0,
0.572046451668711,3,23,51,0,0,0,0,1,
0.576935737580409,1,23,35,0,1,0,0,1,
0.581825023492108,0,19,39,0,0,0,1,1,
0.586714309403806,0,22,32,0,0,0,0,0,
0.591603595315505,1,29,31,0,0,0,0,0,
0.596492881227203,1,13,38,0,0,0,1,0,
0.601382167138901,1,29,50,0,0,0,0,2,
0.6062714530506,2,19,29,1,0,0,0,2,
0.611160738962298,2,13,33,0,0,0,0,0,
0.616050024873996,0,21,49,0,1,0,0,0,
0.620939310785695,2,31,45,1,0,0,0,1,
0.625828596697393,0,19,47,0,0,0,0,0,
0.630717882609092,6,20,34,0,0,0,0,1,
0.63560716852079,1,25,31,0,0,0,0,1,
0.640496454432488,1,23,39,0,0,0,0,0,
0.645385740344187,2,30,47,0,1,0,0,2,
0.650275026255885,0,21,48,0,0,0,0,1,
0.655164312167584,0,31,52,0,0,0,0,0,
0.660053598079282,0,19,58,0,0,0,0,0,
0.66494288399098,1,21,45,0,0,0,0,0,
0.669832169902679,2,16,40,1,0,0,0,3,
0.674721455814377,2,24,40,0,0,0,0,1,
0.679610741726076,2,25,50,0,0,0,0,1,
0.684500027637774,1,18,42,0,0,0,0,1,
0.689389313549472,0,31,47,0,0,0,0,0,
0.694278599461171,0,28,43,0,0,0,0,0,
0.699167885372869,3,26,41,1,0,0,0,1,
0.704057171284567,2,34,41,1,0,0,0,0,
0.708946457196266,0,23,40,0,0,0,0,0,
0.713835743107964,1,20,48,0,0,0,0,1,
0.718725029019663,1,22,47,0,0,0,0,0,
0.723614314931361,2,22,44,0,0,0,0,1,
0.728503600843059,0,24,35,0,0,0,0,1,
0.733392886754758,0,26,46,0,0,0,0,0,
0.738282172666456,4,26,42,0,1,0,0,1,
0.743171458578154,1,21,41,1,0,0,1,0,
0.748060744489853,0,27,48,0,0,0,0,1,
0.752950030401551,0,19,52,0,0,0,0,0,
0.75783931631325,0,22,36,0,0,0,0,0,
0.762728602224948,0,21,48,0,0,0,1,1,
0.767617888136646,0,27,51,0,1,0,0,0,
0.772507174048345,1,31,47,1,1,0,0,1,
0.777396459960043,0,30,51,0,0,0,1,0,
0.782285745871741,1,23,48,0,1,0,0,2,
0.78717503178344,0,19,48,0,0,0,0,2,
0.792064317695138,1,21,50,0,0,0,0,1,
0.796953603606837,0,29,57,1,1,0,1,0,
0.801842889518535,1,29,41,0,0,0,0,2,
0.806732175430233,0,26,64,0,0,0,0,2,
0.811621461341932,2,20,53,0,0,0,0,3,
0.81651074725363,0,34,43,1,0,0,1,4,
0.821400033165329,3,26,55,0,0,0,1,1,
0.826289319077027,4,22,44,0,1,0,0,2,
0.831178604988725,1,26,42,0,1,0,0,2,
0.836067890900424,6,30,50,0,0,0,1,1,
0.840957176812122,2,21,41,0,2,0,0,4,
0.84584646272382,0,29,58,0,2,0,0,0,
0.850735748635519,0,23,62,1,0,0,0,2,
0.855625034547217,2,29,63,2,1,0,0,2,
0.860514320458916,6,25,54,0,0,0,1,7,
0.865403606370614,0,28,54,0,0,1,0,1,
0.870292892282312,0,26,45,1,0,0,0,1,
0.875182178194011,0,24,47,0,0,0,0,1,
0.880071464105709,0,39,70,0,0,0,0,2,
0.884960750017408,0,43,49,2,1,0,1,2,
0.889850035929106,3,30,61,0,1,0,0,1,
0.894739321840804,0,18,59,0,1,0,0,0,
0.899628607752503,0,35,50,0,0,0,0,1,
0.904517893664201,1,25,61,0,0,0,0,1,
0.9094071795759,0,33,58,0,0,0,0,4,
0.914296465487598,2,25,57,0,0,0,0,1,
0.919185751399296,2,33,51,0,0,0,0,2,
0.924075037310995,1,23,67,0,2,0,0,2,
0.928964323222693,0,31,51,2,0,0,0,1,
0.933853609134391,1,26,57,0,0,0,0,0,
0.93874289504609,0,28,57,0,0,0,0,1,
0.943632180957788,0,34,56,1,0,0,0,1,
0.948521466869487,0,42,47,0,0,0,0,0,
0.953410752781185,0,35,60,0,0,0,0,2,
0.958300038692883,0,33,68,1,0,0,0,0,
0.963189324604582,0,35,66,0,2,0,0,0,
0.96807861051628,0,43,66,1,0,0,0,1,
0.972967896427979,0,40,72,0,0,0,0,0,
0.977857182339677,1,39,68,0,0,0,0,0,
0.982746468251375,0,28,70,0,1,0,1,0,
0.987635754163074,0,29,64,1,0,0,0,1,
0.992525040074772,0,35,75,1,1,0,1,0,
0.99741432598647,0,39,73,2,0,0,0,0,
1.00230361189817,0,34,65,1,0,0,0,0,
1.00719289780987,0,32,69,1,1,0,0,1,
1.01208218372157,0,40,73,0,1,0,0,0,
1.01697146963326,0,29,63,1,0,0,1,1,
1.02186075554496,0,33,63,0,0,0,1,3,
1.02675004145666,0,40,53,2,1,0,1,1,
1.03163932736836,0,39,68,0,0,0,0,0,
1.03652861328006,0,39,63,0,0,0,0,0,
1.04141789919176,0,34,67,0,0,0,1,1,
1.04630718510345,1,46,50,0,0,0,0,0,
1.05119647101515,0,29,70,0,0,0,0,0,
1.05608575692685,0,32,55,0,0,0,0,0,
1.06097504283855,0,41,65,0,0,0,0,0,
1.06586432875025,0,42,64,2,0,0,0,1,
1.07075361466195,1,42,56,1,0,0,0,0,
1.07564290057364,0,29,55,0,1,0,0,1,
1.08053218648534,0,33,76,0,0,0,1,0,
1.08542147239704,0,38,61,0,1,0,0,1,
1.09031075830874,0,36,69,0,0,0,0,0,
1.09520004422044,1,28,71,0,1,0,0,0,
1.10008933013214,0,39,58,0,1,0,0,1,
1.10497861604383,0,34,71,0,0,0,0,0,
1.10986790195553,0,42,65,1,0,0,0,1,
1.11475718786723,0,29,60,1,1,0,0,0,
1.11964647377893,0,39,63,0,0,0,1,1,
1.12453575969063,0,36,75,0,0,0,0,0,
1.12942504560233,0,32,57,2,0,0,0,0,
1.13431433151403,1,36,77,0,0,0,0,1,
1.13920361742572,0,40,63,0,0,0,0,0,
1.14409290333742,0,38,75,0,0,0,0,1,
1.14898218924912,0,30,68,0,0,0,0,0,
1.15387147516082,0,28,62,0,0,0,1,0,
1.15876076107252,0,41,62,1,0,0,0,1,
1.16365004698422,0,29,74,2,0,0,0,0,
1.16853933289591,0,36,72,1,0,0,1,0,
1.17342861880761,1,27,78,0,0,0,0,3,
1.17831790471931,1,38,72,0,0,0,0,2,
1.18320719063101,0,37,80,0,0,0,0,1,
1.18809647654271,0,37,56,1,0,0,0,0,
1.19298576245441,0,35,53,0,1,0,0,1,
1.1978750483661,0,29,60,1,0,0,0,0,
1.2027643342778,0,24,64,0,0,0,0,2,
1.2076536201895,0,32,79,0,0,0,0,0,
1.2125429061012,0,35,78,1,0,0,0,2,
1.2174321920129,0,42,54,0,0,0,0,1,
